Time	Pleth	SPO2	PR	SI
12:24:45	67	98	53	6
12:24:45	66	98	53	6
12:24:45	65	98	53	6
12:24:45	63	98	53	6
12:24:45	62	98	53	6
12:24:45	61	98	53	6
12:24:45	60	98	53	6
12:24:45	58	98	53	6
12:24:45	57	98	53	6
12:24:45	56	98	53	6
12:24:45	55	98	53	6
12:24:45	54	98	53	6
12:24:45	53	98	53	6
12:24:45	52	98	53	6
12:24:45	51	98	53	6
12:24:45	50	98	53	6
12:24:45	49	98	53	6
12:24:45	48	98	53	6
12:24:45	48	98	53	6
12:24:45	47	98	53	6
12:24:45	46	98	53	6
12:24:45	45	98	53	6
12:24:45	44	98	53	6
12:24:45	43	98	53	6
12:24:45	42	98	53	6
12:24:45	41	98	53	6
12:24:45	40	98	53	6
12:24:45	39	98	53	6
12:24:45	39	98	53	6
12:24:45	38	98	53	6
12:24:45	37	98	53	6
12:24:45	36	98	53	6
12:24:45	35	98	53	6
12:24:45	34	98	53	6
12:24:45	33	98	53	6
12:24:45	32	98	53	6
12:24:45	31	98	53	6
12:24:45	30	98	53	6
12:24:45	29	98	53	6
12:24:45	28	98	53	6
12:24:45	27	98	53	6
12:24:45	27	98	53	6
12:24:45	26	98	53	6
12:24:45	25	98	53	6
12:24:45	24	98	53	6
12:24:45	23	98	53	6
12:24:45	22	98	53	6
12:24:45	22	98	53	6
12:24:45	21	98	53	6
12:24:45	20	98	53	6
12:24:45	19	98	53	6
12:24:45	18	98	53	6
12:24:45	18	98	53	6
12:24:45	17	98	53	6
12:24:45	16	98	53	6
12:24:45	15	98	53	6
12:24:45	15	98	53	6
12:24:45	14	98	53	6
12:24:45	13	98	53	6
12:24:45	12	98	53	6
12:24:45	12	98	53	6
12:24:45	12	98	53	6
12:24:45	12	98	53	6
12:24:45	13	98	53	6
12:24:45	15	98	53	6
12:24:46	18	98	53	6
12:24:46	22	98	53	6
12:24:46	26	98	53	6
12:24:46	32	98	53	6
12:24:46	38	98	53	6
12:24:46	45	98	53	6
12:24:46	52	98	53	6
12:24:46	58	98	53	6
12:24:46	65	98	53	6
12:24:46	71	98	53	6
12:24:46	77	98	53	6
12:24:46	82	98	53	6
12:24:46	86	98	53	6
12:24:46	89	98	53	6
12:24:46	92	98	53	6
12:24:46	94	98	53	6
12:24:46	95	98	53	6
12:24:46	95	98	53	6
12:24:46	95	98	53	6
12:24:46	94	98	53	6
12:24:46	94	98	53	6
12:24:46	94	98	53	6
12:24:46	93	98	53	6
12:24:46	92	98	53	6
12:24:46	91	98	53	6
12:24:46	90	98	53	6
12:24:46	89	98	53	6
12:24:46	88	98	53	6
12:24:46	87	98	53	6
12:24:46	86	98	53	6
12:24:46	84	98	53	6
12:24:46	83	98	53	6
12:24:46	82	98	53	6
12:24:46	81	98	53	6
12:24:46	80	98	53	6
12:24:46	79	98	53	6
12:24:46	78	98	53	6
12:24:46	77	98	53	6
12:24:46	76	98	53	6
12:24:46	75	98	53	6
12:24:46	75	98	53	6
12:24:46	74	98	53	6
12:24:46	73	98	53	6
12:24:46	72	98	53	6
12:24:46	71	98	53	6
12:24:46	70	98	53	6
12:24:46	69	98	53	6
12:24:46	68	98	53	6
12:24:46	66	98	53	6
12:24:46	65	98	53	6
12:24:46	64	98	53	6
12:24:46	62	98	53	6
12:24:46	61	98	53	6
12:24:46	59	98	53	6
12:24:46	58	98	53	6
12:24:46	57	98	53	6
12:24:46	56	98	53	6
12:24:46	54	98	53	6
12:24:46	53	98	53	6
12:24:46	52	98	53	6
12:24:46	51	98	53	6
12:24:46	50	98	53	6
12:24:46	49	98	53	6
12:24:46	49	98	53	6
12:24:46	48	98	53	6
12:24:46	47	98	53	6
12:24:46	46	98	53	6
12:24:46	45	98	53	6
12:24:46	45	98	53	6
12:24:46	44	98	53	6
12:24:46	43	98	53	6
12:24:46	42	98	53	6
12:24:46	41	98	53	6
12:24:46	41	98	53	6
12:24:46	40	98	53	6
12:24:46	39	98	53	6
12:24:46	38	98	53	6
12:24:46	37	98	53	6
12:24:46	36	98	53	6
12:24:46	35	98	53	6
12:24:46	34	98	53	6
12:24:46	34	98	53	6
12:24:46	33	98	53	6
12:24:46	32	98	53	6
12:24:46	31	98	53	6
12:24:46	30	98	53	6
12:24:46	30	98	53	6
12:24:46	29	98	53	6
12:24:46	28	98	53	6
12:24:46	28	98	53	6
12:24:46	27	98	53	6
12:24:46	26	98	53	6
12:24:46	25	98	53	6
12:24:46	24	98	53	6
12:24:46	24	98	53	6
12:24:46	23	98	53	6
12:24:46	23	98	53	6
12:24:46	24	98	53	6
12:24:46	25	98	53	6
12:24:46	27	97	52	6
12:24:46	30	97	52	6
12:24:47	35	97	52	6
12:24:47	40	97	52	6
12:24:47	45	97	52	6
12:24:47	52	97	52	6
12:24:47	59	97	52	6
12:24:47	66	97	52	6
12:24:47	73	97	52	6
12:24:47	79	97	52	6
12:24:47	86	97	52	6
12:24:47	91	97	52	6
12:24:47	95	97	52	6
12:24:47	95	97	52	6
12:24:47	95	97	52	6
12:24:47	95	97	52	6
12:24:47	95	97	52	6
12:24:47	95	97	52	6
12:24:47	94	97	52	6
12:24:47	94	97	52	6
12:24:47	94	97	52	6
12:24:47	93	97	52	6
12:24:47	92	97	52	6
12:24:47	91	97	52	6
12:24:47	90	97	52	6
12:24:47	89	97	52	6
12:24:47	87	97	52	6
12:24:47	86	97	52	6
12:24:47	85	97	52	6
12:24:47	83	97	52	6
12:24:47	82	97	52	6
12:24:47	80	97	52	6
12:24:47	79	97	52	6
12:24:47	78	97	52	6
12:24:47	77	97	52	6
12:24:47	76	97	52	6
12:24:47	75	97	52	6
12:24:47	74	97	52	6
12:24:47	74	97	52	6
12:24:47	73	97	52	6
12:24:47	72	97	52	6
12:24:47	71	97	52	6
12:24:47	71	97	52	6
12:24:47	70	97	52	6
12:24:47	69	97	52	6
12:24:47	68	97	52	6
12:24:47	67	97	52	6
12:24:47	65	97	52	6
12:24:47	64	97	52	6
12:24:47	63	97	52	6
12:24:47	61	97	52	6
12:24:47	60	97	52	6
12:24:47	59	97	52	6
12:24:47	57	97	52	6
12:24:47	56	97	52	6
12:24:47	55	97	52	6
12:24:47	54	97	52	6
12:24:47	53	97	52	6
12:24:47	51	97	52	6
12:24:47	50	97	52	6
12:24:47	49	97	52	6
12:24:47	48	97	52	6
12:24:47	47	97	52	6
12:24:47	47	97	52	6
12:24:47	46	97	52	6
12:24:47	45	97	52	6
12:24:47	44	97	52	6
12:24:47	43	97	52	6
12:24:47	42	97	52	6
12:24:47	42	97	52	6
12:24:47	41	97	52	6
12:24:47	40	97	52	6
12:24:47	39	97	52	6
12:24:47	38	97	52	6
12:24:47	37	97	52	6
12:24:47	36	97	52	6
12:24:47	35	97	52	6
12:24:47	34	97	52	6
12:24:47	34	97	52	6
12:24:47	33	97	52	6
12:24:47	32	97	52	6
12:24:47	31	97	52	6
12:24:47	30	97	52	6
12:24:47	29	97	52	6
12:24:47	29	97	52	6
12:24:47	28	97	52	6
12:24:47	27	97	52	6
12:24:47	27	97	52	6
12:24:47	26	97	52	6
12:24:47	26	97	52	6
12:24:47	25	97	52	6
12:24:47	25	97	52	6
12:24:47	24	97	52	6
12:24:47	23	97	52	6
12:24:47	23	97	52	6
12:24:47	22	97	52	6
12:24:47	22	97	52	6
12:24:47	21	97	52	6
12:24:47	21	97	52	6
12:24:47	21	97	52	6
12:24:47	23	97	52	6
12:24:47	24	97	52	6
12:24:47	27	97	52	6
12:24:48	30	97	52	6
12:24:48	35	97	52	6
12:24:48	40	97	52	6
12:24:48	46	97	52	6
12:24:48	52	97	52	6
12:24:48	58	97	52	6
12:24:48	64	97	52	6
12:24:48	71	97	52	6
12:24:48	76	97	52	6
12:24:48	81	97	52	6
12:24:48	86	97	52	6
12:24:48	89	97	52	6
12:24:48	92	97	52	6
12:24:48	94	97	52	6
12:24:48	95	97	52	6
12:24:48	95	97	52	6
12:24:48	95	97	52	6
12:24:48	94	97	52	6
12:24:48	94	97	52	6
12:24:48	94	97	52	6
12:24:48	93	97	52	6
12:24:48	92	97	52	6
12:24:48	91	97	52	6
12:24:48	90	97	52	6
12:24:48	89	97	52	6
12:24:48	88	97	52	6
12:24:48	86	97	52	6
12:24:48	85	97	52	6
12:24:48	83	97	52	6
12:24:48	82	97	52	6
12:24:48	80	97	52	6
12:24:48	79	97	52	6
12:24:48	78	97	52	6
12:24:48	76	97	52	6
12:24:48	75	97	52	6
12:24:48	74	97	52	6
12:24:48	73	97	52	6
12:24:48	72	97	52	6
12:24:48	71	97	52	6
12:24:48	71	97	52	6
12:24:48	70	97	52	6
12:24:48	69	97	52	6
12:24:48	68	97	52	6
12:24:48	67	97	52	6
12:24:48	66	97	52	6
12:24:48	65	97	52	6
12:24:48	64	97	52	6
12:24:48	62	97	52	6
12:24:48	61	97	52	6
12:24:48	60	97	52	6
12:24:48	58	97	52	6
12:24:48	57	97	52	6
12:24:48	56	97	52	6
12:24:48	54	97	52	6
12:24:48	53	97	52	6
12:24:48	52	97	52	6
12:24:48	51	97	52	6
12:24:48	50	97	52	6
12:24:48	49	97	52	6
12:24:48	48	97	52	6
12:24:48	47	97	52	6
12:24:48	46	97	52	6
12:24:48	45	97	52	6
12:24:48	44	97	52	6
12:24:48	43	97	52	6
12:24:48	42	97	52	6
12:24:48	41	97	52	6
12:24:48	40	97	52	6
12:24:48	39	97	52	6
12:24:48	38	97	52	6
12:24:48	37	97	52	6
12:24:48	36	97	52	6
12:24:48	35	97	52	6
12:24:48	34	97	52	6
12:24:48	33	97	52	6
12:24:48	32	97	52	6
12:24:48	31	97	52	6
12:24:48	30	97	52	6
12:24:48	29	97	52	6
12:24:48	28	97	52	6
12:24:48	27	97	52	6
12:24:48	26	97	52	6
12:24:48	25	97	52	6
12:24:48	24	97	52	6
12:24:48	23	97	52	6
12:24:48	22	97	52	6
12:24:48	22	97	52	6
12:24:48	21	97	52	6
12:24:48	20	97	52	6
12:24:48	20	97	52	6
12:24:48	19	97	52	6
12:24:48	19	97	52	6
12:24:48	18	97	52	6
12:24:48	18	97	52	6
12:24:48	18	97	52	6
12:24:48	17	97	52	6
12:24:48	17	97	52	6
12:24:48	17	97	53	6
12:24:49	16	97	53	6
12:24:49	16	97	53	6
12:24:49	16	97	53	6
12:24:49	15	97	53	6
12:24:49	15	97	53	6
12:24:49	14	97	53	6
12:24:49	13	97	53	6
12:24:49	13	97	53	6
12:24:49	12	97	53	6
12:24:49	12	97	53	6
12:24:49	12	97	53	6
12:24:49	12	97	53	6
12:24:49	13	97	53	6
12:24:49	14	97	53	6
12:24:49	17	97	53	6
12:24:49	20	97	53	6
12:24:49	24	97	53	6
12:24:49	29	97	53	6
12:24:49	34	97	53	6
12:24:49	40	97	53	6
12:24:49	46	97	53	6
12:24:49	52	97	53	6
12:24:49	58	97	53	6
12:24:49	64	97	53	6
12:24:49	68	97	53	6
12:24:49	73	97	53	6
12:24:49	76	97	53	6
12:24:49	79	97	53	6
12:24:49	81	97	53	6
12:24:49	83	97	53	6
12:24:49	84	97	53	6
12:24:49	85	97	53	6
12:24:49	85	97	53	6
12:24:49	85	97	53	6
12:24:49	85	97	53	6
12:24:49	84	97	53	6
12:24:49	84	97	53	6
12:24:49	83	97	53	6
12:24:49	82	97	53	6
12:24:49	81	97	53	6
12:24:49	79	97	53	6
12:24:49	78	97	53	6
12:24:49	76	97	53	6
12:24:49	75	97	53	6
12:24:49	73	97	53	6
12:24:49	72	97	53	6
12:24:49	71	97	53	6
12:24:49	69	97	53	6
12:24:49	68	97	53	6
12:24:49	67	97	53	6
12:24:49	66	97	53	6
12:24:49	65	97	53	6
12:24:49	64	97	53	6
12:24:49	63	97	53	6
12:24:49	62	97	53	6
12:24:49	61	97	53	6
12:24:49	60	97	53	6
12:24:49	59	97	53	6
12:24:49	58	97	53	6
12:24:49	57	97	53	6
12:24:49	56	97	53	6
12:24:49	55	97	53	6
12:24:49	53	97	53	6
12:24:49	52	97	53	6
12:24:49	51	97	53	6
12:24:49	50	97	53	6
12:24:49	48	97	53	6
12:24:49	47	97	53	6
12:24:49	45	97	53	6
12:24:49	44	97	53	6
12:24:49	43	97	53	6
12:24:49	41	97	53	6
12:24:49	40	97	53	6
12:24:49	39	97	53	6
12:24:49	38	97	53	6
12:24:49	36	97	53	6
12:24:49	35	97	53	6
12:24:49	34	97	53	6
12:24:49	33	97	53	6
12:24:49	32	97	53	6
12:24:49	31	97	53	6
12:24:49	30	97	53	6
12:24:49	29	97	53	6
12:24:49	27	97	53	6
12:24:49	26	97	53	6
12:24:49	25	97	53	6
12:24:49	24	97	53	6
12:24:49	23	97	53	6
12:24:49	21	97	53	6
12:24:49	20	97	53	6
12:24:49	19	97	53	6
12:24:49	18	97	53	6
12:24:49	17	97	53	6
12:24:49	16	97	53	6
12:24:49	15	97	53	6
12:24:49	14	97	53	6
12:24:49	13	97	53	6
12:24:49	13	97	53	6
12:24:49	12	97	53	6
12:24:49	11	97	53	5
12:24:50	10	97	53	5
12:24:50	9	97	53	5
12:24:50	9	97	53	5
12:24:50	8	97	53	5
12:24:50	7	97	53	5
12:24:50	7	97	53	5
12:24:50	6	97	53	5
12:24:50	6	97	53	5
12:24:50	5	97	53	5
12:24:50	5	97	53	5
12:24:50	5	97	53	5
12:24:50	5	97	53	5
12:24:50	5	97	53	5
12:24:50	5	97	53	5
12:24:50	5	97	53	5
12:24:50	5	97	53	5
12:24:50	5	97	53	5
12:24:50	5	97	53	5
12:24:50	5	97	53	5
12:24:50	5	97	53	5
12:24:50	5	97	53	5
12:24:50	6	97	53	5
12:24:50	8	97	53	5
12:24:50	10	97	53	5
12:24:50	13	97	53	5
12:24:50	17	97	53	5
12:24:50	22	97	53	5
12:24:50	27	97	53	5
12:24:50	32	97	53	5
12:24:50	38	97	53	5
12:24:50	43	97	53	5
12:24:50	49	97	53	5
12:24:50	54	97	53	5
12:24:50	58	97	53	5
12:24:50	62	97	53	5
12:24:50	65	97	53	5
12:24:50	67	97	53	5
12:24:50	69	97	53	5
12:24:50	70	97	53	5
12:24:50	70	97	53	5
12:24:50	71	97	53	5
12:24:50	70	97	53	5
12:24:50	70	97	53	5
12:24:50	69	97	53	5
12:24:50	68	97	53	5
12:24:50	67	97	53	5
12:24:50	66	97	53	5
12:24:50	64	97	53	5
12:24:50	63	97	53	5
12:24:50	62	97	53	5
12:24:50	61	97	53	5
12:24:50	60	97	53	5
12:24:50	59	97	53	5
12:24:50	58	97	53	5
12:24:50	57	97	53	5
12:24:50	57	97	53	5
12:24:50	56	97	53	5
12:24:50	56	97	53	5
12:24:50	55	97	53	5
12:24:50	55	97	53	5
12:24:50	55	97	53	5
12:24:50	54	97	53	5
12:24:50	54	97	53	5
12:24:50	53	97	53	5
12:24:50	53	97	53	5
12:24:50	52	97	53	5
12:24:50	51	97	53	5
12:24:50	50	97	53	5
12:24:50	49	97	53	5
12:24:50	48	97	53	5
12:24:50	47	97	53	5
12:24:50	46	97	53	5
12:24:50	44	97	53	5
12:24:50	43	97	53	5
12:24:50	42	97	53	5
12:24:50	41	97	53	5
12:24:50	39	97	53	5
12:24:50	38	97	53	5
12:24:50	37	97	53	5
12:24:50	36	97	53	5
12:24:50	35	97	53	5
12:24:50	34	97	53	5
12:24:50	34	97	53	5
12:24:50	33	97	53	5
12:24:50	32	97	53	5
12:24:50	31	97	53	5
12:24:50	31	97	53	5
12:24:50	30	97	53	5
12:24:50	29	97	53	5
12:24:50	28	97	53	5
12:24:50	28	97	53	5
12:24:50	27	97	53	5
12:24:50	26	97	53	5
12:24:50	25	97	53	5
12:24:50	25	97	53	5
12:24:50	24	97	53	5
12:24:50	23	97	53	5
12:24:50	22	97	53	5
12:24:50	21	97	53	5
12:24:50	21	97	55	6
12:24:50	20	97	55	6
12:24:50	19	97	55	6
12:24:51	18	97	55	6
12:24:51	18	97	55	6
12:24:51	17	97	55	6
12:24:51	16	97	55	6
12:24:51	15	97	55	6
12:24:51	15	97	55	6
12:24:51	14	97	55	6
12:24:51	13	97	55	6
12:24:51	13	97	55	6
12:24:51	13	97	55	6
12:24:51	13	97	55	6
12:24:51	14	97	55	6
12:24:51	15	97	55	6
12:24:51	18	97	55	6
12:24:51	21	97	55	6
12:24:51	25	97	55	6
12:24:51	29	97	55	6
12:24:51	35	97	55	6
12:24:51	40	97	55	6
12:24:51	46	97	55	6
12:24:51	52	97	55	6
12:24:51	57	97	55	6
12:24:51	62	97	55	6
12:24:51	67	97	55	6
12:24:51	71	97	55	6
12:24:51	74	97	55	6
12:24:51	76	97	55	6
12:24:51	78	97	55	6
12:24:51	79	97	55	6
12:24:51	80	97	55	6
12:24:51	80	97	55	6
12:24:51	81	97	55	6
12:24:51	80	97	55	6
12:24:51	80	97	55	6
12:24:51	79	97	55	6
12:24:51	79	97	55	6
12:24:51	78	97	55	6
12:24:51	77	97	55	6
12:24:51	76	97	55	6
12:24:51	75	97	55	6
12:24:51	73	97	55	6
12:24:51	72	97	55	6
12:24:51	71	97	55	6
12:24:51	70	97	55	6
12:24:51	68	97	55	6
12:24:51	67	97	55	6
12:24:51	66	97	55	6
12:24:51	65	97	55	6
12:24:51	64	97	55	6
12:24:51	63	97	55	6
12:24:51	62	97	55	6
12:24:51	62	97	55	6
12:24:51	61	97	55	6
12:24:51	60	97	55	6
12:24:51	59	97	55	6
12:24:51	58	97	55	6
12:24:51	57	97	55	6
12:24:51	56	97	55	6
12:24:51	55	97	55	6
12:24:51	54	97	55	6
12:24:51	52	97	55	6
12:24:51	51	97	55	6
12:24:51	49	97	55	6
12:24:51	48	97	55	6
12:24:51	46	97	55	6
12:24:51	45	97	55	6
12:24:51	43	97	55	6
12:24:51	42	97	55	6
12:24:51	41	97	55	6
12:24:51	39	97	55	6
12:24:51	38	97	55	6
12:24:51	37	97	55	6
12:24:51	36	97	55	6
12:24:51	35	97	55	6
12:24:51	34	97	55	6
12:24:51	33	97	55	6
12:24:51	32	97	55	6
12:24:51	31	97	55	6
12:24:51	30	97	55	6
12:24:51	29	97	55	6
12:24:51	29	97	55	6
12:24:51	28	97	55	6
12:24:51	27	97	55	6
12:24:51	26	97	55	6
12:24:51	25	97	55	6
12:24:51	24	97	55	6
12:24:51	23	97	55	6
12:24:51	22	97	55	6
12:24:51	21	97	55	6
12:24:51	20	97	55	6
12:24:51	19	97	55	6
12:24:51	18	97	55	6
12:24:51	18	97	55	6
12:24:51	17	97	55	6
12:24:51	16	97	55	6
12:24:51	15	97	55	6
12:24:51	14	97	55	6
12:24:51	13	97	54	6
12:24:52	13	97	54	6
12:24:52	12	97	54	6
12:24:52	11	97	54	6
12:24:52	11	97	54	6
12:24:52	10	97	54	6
12:24:52	10	97	54	6
12:24:52	11	97	54	6
12:24:52	13	97	54	6
12:24:52	15	97	54	6
12:24:52	19	97	54	6
12:24:52	23	97	54	6
12:24:52	28	97	54	6
12:24:52	33	97	54	6
12:24:52	39	97	54	6
12:24:52	46	97	54	6
12:24:52	52	97	54	6
12:24:52	58	97	54	6
12:24:52	64	97	54	6
12:24:52	69	97	54	6
12:24:52	73	97	54	6
12:24:52	77	97	54	6
12:24:52	80	97	54	6
12:24:52	82	97	54	6
12:24:52	84	97	54	6
12:24:52	85	97	54	6
12:24:52	86	97	54	6
12:24:52	86	97	54	6
12:24:52	86	97	54	6
12:24:52	85	97	54	6
12:24:52	85	97	54	6
12:24:52	84	97	54	6
12:24:52	83	97	54	6
12:24:52	82	97	54	6
12:24:52	81	97	54	6
12:24:52	80	97	54	6
12:24:52	79	97	54	6
12:24:52	77	97	54	6
12:24:52	76	97	54	6
12:24:52	74	97	54	6
12:24:52	73	97	54	6
12:24:52	71	97	54	6
12:24:52	70	97	54	6
12:24:52	69	97	54	6
12:24:52	67	97	54	6
12:24:52	66	97	54	6
12:24:52	65	97	54	6
12:24:52	64	97	54	6
12:24:52	63	97	54	6
12:24:52	62	97	54	6
12:24:52	61	97	54	6
12:24:52	59	97	54	6
12:24:52	58	97	54	6
12:24:52	57	97	54	6
12:24:52	56	97	54	6
12:24:52	54	97	54	6
12:24:52	53	97	54	6
12:24:52	51	97	54	6
12:24:52	49	97	54	6
12:24:52	48	97	54	6
12:24:52	46	97	54	6
12:24:52	45	97	54	6
12:24:52	43	97	54	6
12:24:52	41	97	54	6
12:24:52	40	97	54	6
12:24:52	38	97	54	6
12:24:52	37	97	54	6
12:24:52	35	97	54	6
12:24:52	34	97	54	6
12:24:52	33	97	54	6
12:24:52	31	97	54	6
12:24:52	30	97	54	6
12:24:52	29	97	54	6
12:24:52	28	97	54	6
12:24:52	27	97	54	6
12:24:52	26	97	54	6
12:24:52	24	97	54	6
12:24:52	23	97	54	6
12:24:52	22	97	54	6
12:24:52	21	97	54	6
12:24:52	20	97	54	6
12:24:52	18	97	54	6
12:24:52	17	97	54	6
12:24:52	16	97	54	6
12:24:52	15	97	54	6
12:24:52	14	97	54	6
12:24:52	13	97	54	6
12:24:52	11	97	54	6
12:24:52	10	97	54	6
12:24:52	9	97	54	6
12:24:52	8	97	54	6
12:24:52	7	97	54	6
12:24:52	6	97	54	6
12:24:52	5	97	54	6
12:24:52	5	97	54	6
12:24:52	5	97	54	6
12:24:52	5	97	54	6
12:24:52	5	97	54	6
12:24:52	5	97	54	6
12:24:52	5	97	54	6
12:24:52	5	97	55	6
12:24:52	5	97	55	6
12:24:52	5	97	55	6
12:24:53	5	97	55	6
12:24:53	5	97	55	6
12:24:53	5	97	55	6
12:24:53	5	97	55	6
12:24:53	5	97	55	6
12:24:53	5	97	55	6
12:24:53	5	97	55	6
12:24:53	5	97	55	6
12:24:53	5	97	55	6
12:24:53	5	97	55	6
12:24:53	7	97	55	6
12:24:53	9	97	55	6
12:24:53	11	97	55	6
12:24:53	15	97	55	6
12:24:53	19	97	55	6
12:24:53	23	97	55	6
12:24:53	27	97	55	6
12:24:53	32	97	55	6
12:24:53	37	97	55	6
12:24:53	41	97	55	6
12:24:53	45	97	55	6
12:24:53	49	97	55	6
12:24:53	51	97	55	6
12:24:53	54	97	55	6
12:24:53	56	97	55	6
12:24:53	57	97	55	6
12:24:53	58	97	55	6
12:24:53	58	97	55	6
12:24:53	59	97	55	6
12:24:53	59	97	55	6
12:24:53	58	97	55	6
12:24:53	58	97	55	6
12:24:53	58	97	55	6
12:24:53	57	97	55	6
12:24:53	56	97	55	6
12:24:53	56	97	55	6
12:24:53	55	97	55	6
12:24:53	54	97	55	6
12:24:53	53	97	55	6
12:24:53	52	97	55	6
12:24:53	51	97	55	6
12:24:53	51	97	55	6
12:24:53	50	97	55	6
12:24:53	49	97	55	6
12:24:53	48	97	55	6
12:24:53	47	97	55	6
12:24:53	46	97	55	6
12:24:53	46	97	55	6
12:24:53	45	97	55	6
12:24:53	44	97	55	6
12:24:53	44	97	55	6
12:24:53	43	97	55	6
12:24:53	42	97	55	6
12:24:53	42	97	55	6
12:24:53	41	97	55	6
12:24:53	40	97	55	6
12:24:53	39	97	55	6
12:24:53	38	97	55	6
12:24:53	37	97	55	6
12:24:53	36	97	55	6
12:24:53	35	97	55	6
12:24:53	34	97	55	6
12:24:53	33	97	55	6
12:24:53	32	97	55	6
12:24:53	31	97	55	6
12:24:53	30	97	55	6
12:24:53	29	97	55	6
12:24:53	28	97	55	6
12:24:53	27	97	55	6
12:24:53	26	97	55	6
12:24:53	25	97	55	6
12:24:53	25	97	55	6
12:24:53	24	97	55	6
12:24:53	23	97	55	6
12:24:53	22	97	55	6
12:24:53	21	97	55	6
12:24:53	21	97	55	6
12:24:53	20	97	55	6
12:24:53	19	97	55	6
12:24:53	18	97	55	6
12:24:53	18	97	55	6
12:24:53	17	97	55	6
12:24:53	16	97	55	6
12:24:53	15	97	55	6
12:24:53	15	97	55	6
12:24:53	14	97	55	6
12:24:53	13	97	55	6
12:24:53	12	97	55	6
12:24:53	12	97	55	6
12:24:53	11	97	55	6
12:24:53	10	97	55	6
12:24:53	9	97	55	6
12:24:53	9	97	55	6
12:24:53	8	97	55	6
12:24:53	7	97	55	6
12:24:53	7	97	55	6
12:24:53	6	97	55	6
12:24:53	5	97	55	6
12:24:53	5	97	55	6
12:24:53	5	97	55	6
12:24:54	5	97	55	6
12:24:54	5	97	55	6
12:24:54	5	97	55	6
12:24:54	5	97	55	6
12:24:54	5	97	55	6
12:24:54	5	97	55	6
12:24:54	5	97	55	6
12:24:54	5	97	55	6
12:24:54	5	97	55	6
12:24:54	5	97	55	6
12:24:54	5	97	55	6
12:24:54	5	97	55	6
12:24:54	5	97	55	6
12:24:54	5	97	55	6
12:24:54	5	97	55	6
12:24:54	5	97	55	6
12:24:54	5	97	55	6
12:24:54	5	97	55	6
12:24:54	7	97	55	6
12:24:54	8	97	55	6
12:24:54	10	97	55	6
12:24:54	13	97	55	6
12:24:54	17	97	55	6
12:24:54	21	97	55	6
12:24:54	25	97	55	6
12:24:54	29	97	55	6
12:24:54	33	97	55	6
12:24:54	37	97	55	6
12:24:54	40	97	55	6
12:24:54	43	97	55	6
12:24:54	46	97	55	6
12:24:54	48	97	55	6
12:24:54	50	97	55	6
12:24:54	51	97	55	6
12:24:54	51	97	55	6
12:24:54	52	97	55	6
12:24:54	52	97	55	6
12:24:54	52	97	55	6
12:24:54	51	97	55	6
12:24:54	51	97	55	6
12:24:54	50	97	55	6
12:24:54	50	97	55	6
12:24:54	49	97	55	6
12:24:54	48	97	55	6
12:24:54	48	97	55	6
12:24:54	47	97	55	6
12:24:54	46	97	55	6
12:24:54	46	97	55	6
12:24:54	45	97	55	6
12:24:54	44	97	55	6
12:24:54	44	97	55	6
12:24:54	43	97	55	6
12:24:54	43	97	55	6
12:24:54	42	97	55	6
12:24:54	42	97	55	6
12:24:54	42	97	55	6
12:24:54	42	97	55	6
12:24:54	41	97	55	6
12:24:54	41	97	55	6
12:24:54	41	97	55	6
12:24:54	40	97	55	6
12:24:54	40	97	55	6
12:24:54	39	97	55	6
12:24:54	39	97	55	6
12:24:54	38	97	55	6
12:24:54	38	97	55	6
12:24:54	37	97	55	6
12:24:54	36	97	55	6
12:24:54	35	97	55	6
12:24:54	35	97	55	6
12:24:54	34	97	55	6
12:24:54	33	97	55	6
12:24:54	32	97	55	6
12:24:54	32	97	55	6
12:24:54	31	97	55	6
12:24:54	30	97	55	6
12:24:54	30	97	55	6
12:24:54	29	97	55	6
12:24:54	29	97	55	6
12:24:54	28	97	55	6
12:24:54	28	97	55	6
12:24:54	27	97	55	6
12:24:54	27	97	55	6
12:24:54	26	97	55	6
12:24:54	26	97	55	6
12:24:54	25	97	55	6
12:24:54	25	97	55	6
12:24:54	24	97	55	6
12:24:54	24	97	55	6
12:24:54	23	97	55	6
12:24:54	23	97	55	6
12:24:54	22	97	55	6
12:24:54	22	97	55	6
12:24:54	21	97	55	6
12:24:54	21	97	55	6
12:24:54	20	97	55	6
12:24:54	20	97	55	6
12:24:54	19	97	55	6
12:24:54	19	97	55	6
12:24:55	18	97	55	6
12:24:55	18	97	55	6
12:24:55	18	97	55	6
12:24:55	17	97	55	6
12:24:55	17	97	55	6
12:24:55	16	97	55	6
12:24:55	16	97	55	6
12:24:55	16	97	55	6
12:24:55	15	97	55	6
12:24:55	15	97	55	6
12:24:55	14	97	55	6
12:24:55	14	97	55	6
12:24:55	14	97	55	6
12:24:55	13	97	55	6
12:24:55	13	97	55	6
12:24:55	13	97	55	6
12:24:55	12	97	55	6
12:24:55	12	97	55	6
12:24:55	12	97	55	6
12:24:55	11	97	55	6
12:24:55	11	97	55	6
12:24:55	11	97	55	6
12:24:55	10	97	55	6
12:24:55	10	97	55	6
12:24:55	10	97	55	6
12:24:55	9	97	55	6
12:24:55	9	97	55	6
12:24:55	9	97	55	6
12:24:55	9	97	55	6
12:24:55	9	97	55	6
12:24:55	10	97	55	6
12:24:55	11	97	55	6
12:24:55	13	97	55	6
12:24:55	16	97	55	6
12:24:55	19	97	55	6
12:24:55	23	97	55	6
12:24:55	27	97	55	6
12:24:55	32	97	55	6
12:24:55	37	97	55	6
12:24:55	42	97	55	6
12:24:55	46	97	55	6
12:24:55	51	97	55	6
12:24:55	54	97	55	6
12:24:55	58	97	55	6
12:24:55	60	97	55	6
12:24:55	62	97	55	6
12:24:55	64	97	55	6
12:24:55	65	97	55	6
12:24:55	65	97	55	6
12:24:55	65	97	55	6
12:24:55	65	97	55	6
12:24:55	65	97	55	6
12:24:55	65	97	55	6
12:24:55	64	97	55	6
12:24:55	63	97	55	6
12:24:55	63	97	55	6
12:24:55	62	97	55	6
12:24:55	61	97	55	6
12:24:55	61	97	55	6
12:24:55	60	97	55	6
12:24:55	59	97	55	6
12:24:55	58	97	55	6
12:24:55	58	97	55	6
12:24:55	57	97	55	6
12:24:55	56	97	55	6
12:24:55	56	97	55	6
12:24:55	55	97	55	6
12:24:55	55	97	55	6
12:24:55	54	97	55	6
12:24:55	54	97	55	6
12:24:55	54	97	55	6
12:24:55	53	97	55	6
12:24:55	53	97	55	6
12:24:55	53	97	55	6
12:24:55	52	97	55	6
12:24:55	52	97	55	6
12:24:55	51	97	55	6
12:24:55	51	97	55	6
12:24:55	50	97	55	6
12:24:55	50	97	55	6
12:24:55	49	97	55	6
12:24:55	48	97	55	6
12:24:55	47	97	55	6
12:24:55	46	97	55	6
12:24:55	46	97	55	6
12:24:55	45	97	55	6
12:24:55	44	97	55	6
12:24:55	43	97	55	6
12:24:55	42	97	55	6
12:24:55	42	97	55	6
12:24:55	41	97	55	6
12:24:55	40	97	55	6
12:24:55	39	97	55	6
12:24:55	39	97	55	6
12:24:55	38	97	55	6
12:24:55	38	97	55	6
12:24:55	37	97	55	6
12:24:55	37	97	55	6
12:24:55	36	97	55	6
12:24:55	35	97	55	6
12:24:56	35	97	55	6
12:24:56	34	97	55	6
12:24:56	34	97	55	6
12:24:56	33	97	55	6
12:24:56	32	97	55	6
12:24:56	32	97	55	6
12:24:56	31	97	55	6
12:24:56	30	97	55	6
12:24:56	30	97	55	6
12:24:56	29	97	55	6
12:24:56	29	97	55	6
12:24:56	28	97	55	6
12:24:56	27	97	55	6
12:24:56	27	97	55	6
12:24:56	26	97	55	6
12:24:56	26	97	55	6
12:24:56	25	97	55	6
12:24:56	24	97	55	6
12:24:56	24	97	55	6
12:24:56	23	97	55	6
12:24:56	23	97	55	6
12:24:56	22	97	55	6
12:24:56	22	97	55	6
12:24:56	21	97	55	6
12:24:56	21	97	55	6
12:24:56	20	97	55	6
12:24:56	20	97	55	6
12:24:56	19	97	55	6
12:24:56	19	97	55	6
12:24:56	18	97	55	6
12:24:56	18	97	55	6
12:24:56	18	97	55	6
12:24:56	17	97	55	6
12:24:56	17	97	55	6
12:24:56	16	97	55	6
12:24:56	16	97	55	6
12:24:56	16	97	55	6
12:24:56	15	97	55	6
12:24:56	15	97	55	6
12:24:56	16	97	55	6
12:24:56	17	97	55	6
12:24:56	18	97	55	6
12:24:56	21	97	55	6
12:24:56	24	97	55	6
12:24:56	28	97	55	6
12:24:56	33	97	55	6
12:24:56	38	97	55	6
12:24:56	43	97	55	6
12:24:56	49	97	55	6
12:24:56	54	97	55	6
12:24:56	59	97	55	6
12:24:56	64	97	55	6
12:24:56	68	97	55	6
12:24:56	71	97	55	6
12:24:56	74	97	55	6
12:24:56	76	97	55	6
12:24:56	77	97	55	6
12:24:56	78	97	55	6
12:24:56	78	97	55	6
12:24:56	78	97	55	6
12:24:56	77	97	55	6
12:24:56	77	97	55	6
12:24:56	76	97	55	6
12:24:56	75	97	55	6
12:24:56	75	97	55	6
12:24:56	74	97	55	6
12:24:56	73	97	55	6
12:24:56	72	97	55	6
12:24:56	71	97	55	6
12:24:56	70	97	55	6
12:24:56	69	97	55	6
12:24:56	68	97	55	6
12:24:56	67	97	55	6
12:24:56	67	97	55	6
12:24:56	66	97	55	6
12:24:56	66	97	55	6
12:24:56	65	97	55	6
12:24:56	65	97	55	6
12:24:56	65	97	55	6
12:24:56	64	97	55	6
12:24:56	64	97	55	6
12:24:56	64	97	55	6
12:24:56	64	97	55	6
12:24:56	63	97	55	6
12:24:56	63	97	55	6
12:24:56	62	97	55	6
12:24:56	62	97	55	6
12:24:56	61	97	55	6
12:24:56	61	97	55	6
12:24:56	60	97	55	6
12:24:56	59	97	55	6
12:24:56	58	97	55	6
12:24:56	57	97	55	6
12:24:56	56	97	55	6
12:24:56	55	97	55	6
12:24:56	55	97	55	6
12:24:56	54	97	55	6
12:24:56	53	97	55	6
12:24:56	52	97	55	6
12:24:56	51	97	55	6
12:24:57	50	97	55	6
12:24:57	49	97	55	6
12:24:57	49	97	55	6
12:24:57	48	97	55	6
12:24:57	47	97	55	6
12:24:57	47	97	55	6
12:24:57	46	97	55	6
12:24:57	45	97	55	6
12:24:57	45	97	55	6
12:24:57	44	97	55	6
12:24:57	43	97	55	6
12:24:57	43	97	55	6
12:24:57	42	97	55	6
12:24:57	41	97	55	6
12:24:57	40	97	55	6
12:24:57	39	97	55	6
12:24:57	39	97	55	6
12:24:57	38	97	55	6
12:24:57	37	97	55	6
12:24:57	36	97	55	6
12:24:57	36	97	55	6
12:24:57	35	97	55	6
12:24:57	34	97	55	6
12:24:57	33	97	55	6
12:24:57	33	97	55	6
12:24:57	32	97	55	6
12:24:57	31	97	55	6
12:24:57	31	97	55	6
12:24:57	30	97	55	6
12:24:57	29	97	55	6
12:24:57	29	97	55	6
12:24:57	28	97	55	6
12:24:57	27	97	55	6
12:24:57	27	97	55	6
12:24:57	26	97	55	6
12:24:57	26	97	55	6
12:24:57	25	97	55	6
12:24:57	26	97	55	6
12:24:57	26	97	55	6
12:24:57	28	97	55	6
12:24:57	30	97	55	6
12:24:57	33	97	55	6
12:24:57	37	97	55	6
12:24:57	42	97	55	6
12:24:57	47	97	55	6
12:24:57	53	97	55	6
12:24:57	59	97	55	6
12:24:57	65	97	55	6
12:24:57	70	97	55	6
12:24:57	75	97	55	6
12:24:57	79	97	55	6
12:24:57	83	97	55	6
12:24:57	86	97	55	6
12:24:57	88	97	55	6
12:24:57	90	97	55	6
12:24:57	91	97	55	6
12:24:57	92	97	55	6
12:24:57	92	97	55	6
12:24:57	92	97	55	6
12:24:57	92	97	55	6
12:24:57	92	97	55	6
12:24:57	91	97	55	6
12:24:57	90	97	55	6
12:24:57	90	97	55	6
12:24:57	89	97	55	6
12:24:57	88	97	55	6
12:24:57	87	97	55	6
12:24:57	86	97	55	6
12:24:57	85	97	55	6
12:24:57	84	97	55	6
12:24:57	83	97	55	6
12:24:57	82	97	55	6
12:24:57	82	97	55	6
12:24:57	81	97	55	6
12:24:57	80	97	55	6
12:24:57	80	97	55	6
12:24:57	79	97	55	6
12:24:57	79	97	55	6
12:24:57	78	97	55	6
12:24:57	78	97	55	6
12:24:57	77	97	55	6
12:24:57	77	97	55	6
12:24:57	76	97	55	6
12:24:57	75	97	55	6
12:24:57	74	97	55	6
12:24:57	73	97	55	6
12:24:57	72	97	55	6
12:24:57	71	97	55	6
12:24:57	70	97	55	6
12:24:57	69	97	55	6
12:24:57	67	97	55	6
12:24:57	66	97	55	6
12:24:57	65	97	55	6
12:24:57	64	97	55	6
12:24:57	63	97	55	6
12:24:57	61	97	55	6
12:24:57	60	97	55	6
12:24:57	59	97	55	6
12:24:57	58	98	55	6
12:24:57	57	98	55	6
12:24:58	56	98	55	6
12:24:58	55	98	55	6
12:24:58	54	98	55	6
12:24:58	53	98	55	6
12:24:58	52	98	55	6
12:24:58	51	98	55	6
12:24:58	50	98	55	6
12:24:58	50	98	55	6
12:24:58	49	98	55	6
12:24:58	48	98	55	6
12:24:58	46	98	55	6
12:24:58	45	98	55	6
12:24:58	44	98	55	6
12:24:58	43	98	55	6
12:24:58	42	98	55	6
12:24:58	41	98	55	6
12:24:58	40	98	55	6
12:24:58	39	98	55	6
12:24:58	38	98	55	6
12:24:58	36	98	55	6
12:24:58	35	98	55	6
12:24:58	34	98	55	6
12:24:58	33	98	55	6
12:24:58	32	98	55	6
12:24:58	31	98	55	6
12:24:58	30	98	55	6
12:24:58	29	98	55	6
12:24:58	28	98	55	6
12:24:58	27	98	55	6
12:24:58	26	98	55	6
12:24:58	26	98	55	6
12:24:58	25	98	55	6
12:24:58	24	98	55	6
12:24:58	23	98	55	6
12:24:58	22	98	55	6
12:24:58	22	98	55	6
12:24:58	21	98	55	6
12:24:58	20	98	55	6
12:24:58	20	98	55	6
12:24:58	19	98	55	6
12:24:58	18	98	55	6
12:24:58	18	98	55	6
12:24:58	17	98	55	6
12:24:58	16	98	55	6
12:24:58	16	98	55	6
12:24:58	15	98	55	6
12:24:58	15	98	55	6
12:24:58	15	98	55	6
12:24:58	16	98	55	6
12:24:58	18	98	55	6
12:24:58	21	98	55	6
12:24:58	25	98	55	6
12:24:58	30	98	55	6
12:24:58	36	98	55	6
12:24:58	43	98	55	6
12:24:58	50	98	55	6
12:24:58	57	98	55	6
12:24:58	64	98	55	6
12:24:58	71	98	55	6
12:24:58	77	98	55	6
12:24:58	83	98	55	6
12:24:58	87	98	55	6
12:24:58	92	98	55	6
12:24:58	95	98	55	6
12:24:58	95	98	55	6
12:24:58	95	98	55	6
12:24:58	95	98	55	6
12:24:58	95	98	55	6
12:24:58	95	98	55	6
12:24:58	95	98	55	6
12:24:58	95	98	55	6
12:24:58	94	98	55	6
12:24:58	94	98	55	6
12:24:58	94	98	55	6
12:24:58	93	98	55	6
12:24:58	93	98	55	6
12:24:58	92	98	55	6
12:24:58	91	98	55	6
12:24:58	90	98	55	6
12:24:58	89	98	55	6
12:24:58	88	98	55	6
12:24:58	87	98	55	6
12:24:58	86	98	55	6
12:24:58	86	98	55	6
12:24:58	85	98	55	6
12:24:58	84	98	55	6
12:24:58	83	98	55	6
12:24:58	83	98	55	6
12:24:58	82	98	55	6
12:24:58	81	98	55	6
12:24:58	81	98	55	6
12:24:58	80	98	55	6
12:24:58	79	98	55	6
12:24:58	78	98	55	6
12:24:58	77	98	55	6
12:24:58	76	98	55	6
12:24:58	75	98	55	6
12:24:58	73	98	55	6
12:24:58	72	97	55	6
12:24:58	71	97	55	6
12:24:59	69	97	55	6
12:24:59	68	97	55	6
12:24:59	67	97	55	6
12:24:59	65	97	55	6
12:24:59	64	97	55	6
12:24:59	63	97	55	6
12:24:59	61	97	55	6
12:24:59	60	97	55	6
12:24:59	59	97	55	6
12:24:59	57	97	55	6
12:24:59	56	97	55	6
12:24:59	55	97	55	6
12:24:59	54	97	55	6
12:24:59	53	97	55	6
12:24:59	52	97	55	6
12:24:59	51	97	55	6
12:24:59	49	97	55	6
12:24:59	48	97	55	6
12:24:59	47	97	55	6
12:24:59	46	97	55	6
12:24:59	45	97	55	6
12:24:59	44	97	55	6
12:24:59	43	97	55	6
12:24:59	42	97	55	6
12:24:59	41	97	55	6
12:24:59	40	97	55	6
12:24:59	39	97	55	6
12:24:59	37	97	55	6
12:24:59	36	97	55	6
12:24:59	35	97	55	6
12:24:59	34	97	55	6
12:24:59	33	97	55	6
12:24:59	32	97	55	6
12:24:59	31	97	55	6
12:24:59	30	97	55	6
12:24:59	29	97	55	6
12:24:59	28	97	55	6
12:24:59	27	97	55	6
12:24:59	26	97	55	6
12:24:59	25	97	55	6
12:24:59	25	97	55	6
12:24:59	24	97	55	6
12:24:59	23	97	55	6
12:24:59	22	97	55	6
12:24:59	22	97	55	6
12:24:59	21	97	55	6
12:24:59	20	97	55	6
12:24:59	20	97	55	6
12:24:59	19	97	55	6
12:24:59	18	97	55	6
12:24:59	17	97	55	6
12:24:59	16	97	55	6
12:24:59	16	97	55	6
12:24:59	15	97	55	6
12:24:59	15	97	55	6
12:24:59	16	97	55	6
12:24:59	17	97	55	6
12:24:59	19	97	55	6
12:24:59	22	97	55	6
12:24:59	26	97	55	6
12:24:59	31	97	55	6
12:24:59	37	97	55	6
12:24:59	43	97	55	6
12:24:59	49	97	55	6
12:24:59	55	97	55	6
12:24:59	61	97	55	6
12:24:59	67	97	55	6
12:24:59	73	97	55	6
12:24:59	77	97	55	6
12:24:59	81	97	55	6
12:24:59	84	97	55	6
12:24:59	87	97	55	6
12:24:59	89	97	55	6
12:24:59	90	97	55	6
12:24:59	91	97	55	6
12:24:59	91	97	55	6
12:24:59	92	97	55	6
12:24:59	92	97	55	6
12:24:59	91	97	55	6
12:24:59	91	97	55	6
12:24:59	91	97	55	6
12:24:59	90	97	55	6
12:24:59	89	97	55	6
12:24:59	89	97	55	6
12:24:59	88	97	55	6
12:24:59	87	97	55	6
12:24:59	85	97	55	6
12:24:59	84	97	55	6
12:24:59	83	97	55	6
12:24:59	82	97	55	6
12:24:59	81	97	55	6
12:24:59	80	97	55	6
12:24:59	79	97	55	6
12:24:59	78	97	55	6
12:24:59	77	97	55	6
12:24:59	77	97	55	6
12:24:59	76	97	55	6
12:24:59	75	97	55	6
12:24:59	74	97	55	6
12:24:59	73	97	55	6
12:25:00	72	97	55	6
12:25:00	71	97	55	6
12:25:00	70	97	55	6
12:25:00	69	97	55	6
12:25:00	67	97	55	6
12:25:00	66	97	55	6
12:25:00	65	97	55	6
12:25:00	63	97	55	6
12:25:00	62	97	55	6
12:25:00	60	97	55	6
12:25:00	59	97	55	6
12:25:00	57	97	55	6
12:25:00	56	97	55	6
12:25:00	54	97	55	6
12:25:00	53	97	55	6
12:25:00	52	97	55	6
12:25:00	50	97	55	6
12:25:00	49	97	55	6
12:25:00	48	97	55	6
12:25:00	47	97	55	6
12:25:00	46	97	55	6
12:25:00	44	97	55	6
12:25:00	43	97	55	6
12:25:00	42	97	55	6
12:25:00	41	97	55	6
12:25:00	40	97	55	6
12:25:00	39	97	55	6
12:25:00	38	97	55	6
12:25:00	37	97	55	6
12:25:00	36	97	55	6
12:25:00	35	97	55	6
12:25:00	34	97	55	6
12:25:00	33	97	55	6
12:25:00	32	97	55	6
12:25:00	30	97	55	6
12:25:00	29	97	55	6
12:25:00	28	97	55	6
12:25:00	27	97	55	6
12:25:00	26	97	55	6
12:25:00	24	97	55	6
12:25:00	23	97	55	6
12:25:00	22	97	55	6
12:25:00	21	97	55	6
12:25:00	20	97	55	6
12:25:00	19	97	55	6
12:25:00	18	97	55	6
12:25:00	17	97	55	6
12:25:00	16	97	55	6
12:25:00	15	97	55	6
12:25:00	14	97	55	6
12:25:00	13	97	55	6
12:25:00	13	97	55	6
12:25:00	12	97	55	6
12:25:00	11	97	55	6
12:25:00	11	97	55	6
12:25:00	10	97	55	6
12:25:00	9	97	55	6
12:25:00	9	97	55	6
12:25:00	8	97	55	6
12:25:00	7	97	55	6
12:25:00	7	97	55	6
12:25:00	6	97	55	6
12:25:00	5	97	55	6
12:25:00	5	97	55	6
12:25:00	5	97	55	6
12:25:00	5	97	55	6
12:25:00	5	97	55	6
12:25:00	5	97	55	6
12:25:00	5	97	55	6
12:25:00	5	97	55	6
12:25:00	5	97	55	6
12:25:00	7	97	55	6
12:25:00	9	97	55	6
12:25:00	13	97	55	6
12:25:00	17	97	55	6
12:25:00	22	97	55	6
12:25:00	28	97	55	6
12:25:00	35	97	55	6
12:25:00	42	97	55	6
12:25:00	49	97	55	6
12:25:00	56	97	55	6
12:25:00	62	97	55	6
12:25:00	68	97	55	6
12:25:00	73	97	55	6
12:25:00	77	97	55	6
12:25:00	81	97	55	6
12:25:00	84	97	55	6
12:25:00	86	97	55	6
12:25:00	88	97	55	6
12:25:00	89	97	55	6
12:25:00	90	97	55	6
12:25:00	91	97	55	6
12:25:00	91	97	55	6
12:25:00	91	97	55	6
12:25:00	92	97	55	6
12:25:00	92	97	55	6
12:25:00	91	97	55	6
12:25:00	91	97	55	6
12:25:00	91	97	55	6
12:25:00	90	97	55	6
12:25:01	90	97	55	6
12:25:01	89	97	55	6
12:25:01	88	97	55	6
12:25:01	88	97	55	6
12:25:01	87	97	55	6
12:25:01	86	97	55	6
12:25:01	86	97	55	6
12:25:01	85	97	55	6
12:25:01	85	97	55	6
12:25:01	84	97	55	6
12:25:01	84	97	55	6
12:25:01	84	97	55	6
12:25:01	83	97	55	6
12:25:01	83	97	55	6
12:25:01	82	97	55	6
12:25:01	81	97	55	6
12:25:01	80	97	55	6
12:25:01	79	97	55	6
12:25:01	78	97	55	6
12:25:01	76	97	55	6
12:25:01	75	97	55	6
12:25:01	73	97	55	6
12:25:01	71	97	55	6
12:25:01	70	97	55	6
12:25:01	68	97	55	6
12:25:01	66	97	55	6
12:25:01	65	97	55	6
12:25:01	63	97	55	6
12:25:01	61	97	55	6
12:25:01	60	97	55	6
12:25:01	59	97	55	6
12:25:01	58	97	55	6
12:25:01	57	97	55	6
12:25:01	56	97	55	6
12:25:01	55	97	55	6
12:25:01	54	97	55	6
12:25:01	53	97	55	6
12:25:01	52	97	55	6
12:25:01	51	97	55	6
12:25:01	51	97	55	6
12:25:01	50	97	55	6
12:25:01	49	97	55	6
12:25:01	48	97	55	6
12:25:01	46	97	55	6
12:25:01	45	97	55	6
12:25:01	44	97	55	6
12:25:01	43	97	55	6
12:25:01	41	97	55	6
12:25:01	40	97	55	6
12:25:01	39	97	55	6
12:25:01	37	97	55	6
12:25:01	36	97	55	6
12:25:01	35	97	55	6
12:25:01	34	97	55	6
12:25:01	33	97	55	6
12:25:01	32	97	55	6
12:25:01	31	97	55	6
12:25:01	30	97	55	6
12:25:01	29	97	55	6
12:25:01	28	97	55	6
12:25:01	27	97	55	6
12:25:01	26	97	55	6
12:25:01	25	97	55	6
12:25:01	24	97	55	6
12:25:01	23	97	55	6
12:25:01	22	97	55	6
12:25:01	21	97	55	6
12:25:01	20	97	55	6
12:25:01	19	97	55	6
12:25:01	18	97	55	6
12:25:01	17	97	55	6
12:25:01	17	97	55	6
12:25:01	16	97	55	6
12:25:01	16	97	55	6
12:25:01	16	97	55	6
12:25:01	16	97	55	6
12:25:01	16	97	55	6
12:25:01	17	97	55	6
12:25:01	18	97	55	6
12:25:01	20	97	55	6
12:25:01	23	97	55	6
12:25:01	28	97	55	6
12:25:01	33	97	55	6
12:25:01	39	97	55	6
12:25:01	45	97	55	6
12:25:01	53	97	55	6
12:25:01	60	97	55	6
12:25:01	67	97	55	6
12:25:01	74	97	55	6
12:25:01	81	97	55	6
12:25:01	87	97	55	6
12:25:01	92	97	55	6
12:25:01	95	97	55	6
12:25:01	95	97	55	6
12:25:01	95	97	55	6
12:25:01	95	97	55	6
12:25:01	95	97	55	6
12:25:01	95	97	55	6
12:25:01	95	97	55	6
12:25:01	95	97	55	6
12:25:02	94	97	55	6
12:25:02	94	97	55	6
12:25:02	94	97	55	6
12:25:02	93	97	55	6
12:25:02	92	97	55	6
12:25:02	91	97	55	6
12:25:02	90	97	55	6
12:25:02	89	97	55	6
12:25:02	88	97	55	6
12:25:02	87	97	55	6
12:25:02	86	97	55	6
12:25:02	85	97	55	6
12:25:02	84	97	55	6
12:25:02	84	97	55	6
12:25:02	83	97	55	6
12:25:02	82	97	55	6
12:25:02	81	97	55	6
12:25:02	81	97	55	6
12:25:02	80	97	55	6
12:25:02	79	97	55	6
12:25:02	78	97	55	6
12:25:02	78	97	55	6
12:25:02	77	97	55	6
12:25:02	76	97	55	6
12:25:02	75	97	55	6
12:25:02	73	97	55	6
12:25:02	72	97	55	6
12:25:02	71	97	55	6
12:25:02	69	97	55	6
12:25:02	68	97	55	6
12:25:02	67	97	55	6
12:25:02	65	97	55	6
12:25:02	64	97	55	6
12:25:02	62	97	55	6
12:25:02	61	97	55	6
12:25:02	60	97	55	6
12:25:02	58	97	55	6
12:25:02	57	97	55	6
12:25:02	56	97	55	6
12:25:02	54	97	55	6
12:25:02	53	97	55	6
12:25:02	52	97	55	6
12:25:02	51	97	55	6
12:25:02	50	97	55	6
12:25:02	49	97	55	6
12:25:02	48	97	55	6
12:25:02	46	97	55	6
12:25:02	45	97	55	6
12:25:02	44	97	55	6
12:25:02	43	97	55	6
12:25:02	42	97	55	6
12:25:02	40	97	55	6
12:25:02	39	97	55	6
12:25:02	38	97	55	6
12:25:02	37	97	55	6
12:25:02	36	97	55	6
12:25:02	34	97	55	6
12:25:02	33	97	55	6
12:25:02	32	97	55	6
12:25:02	31	97	55	6
12:25:02	30	97	55	6
12:25:02	29	97	55	6
12:25:02	28	97	55	6
12:25:02	27	97	55	6
12:25:02	26	97	55	6
12:25:02	25	97	55	6
12:25:02	24	97	55	6
12:25:02	23	97	55	6
12:25:02	22	97	55	6
12:25:02	21	97	55	6
12:25:02	20	97	55	6
12:25:02	19	97	55	6
12:25:02	18	97	55	6
12:25:02	18	97	55	6
12:25:02	17	97	55	6
12:25:02	18	97	55	6
12:25:02	18	97	55	6
12:25:02	20	97	55	6
12:25:02	22	97	55	6
12:25:02	26	97	55	6
12:25:02	30	97	55	6
12:25:02	35	97	55	6
12:25:02	41	97	55	6
12:25:02	47	97	55	6
12:25:02	53	97	55	6
12:25:02	59	97	55	6
12:25:02	65	97	55	6
12:25:02	71	97	55	6
12:25:02	76	97	55	6
12:25:02	80	97	55	6
12:25:02	84	97	55	6
12:25:02	87	97	55	6
12:25:02	89	97	55	6
12:25:02	91	97	55	6
12:25:02	92	97	55	6
12:25:02	92	97	55	6
12:25:02	93	97	55	6
12:25:02	93	97	55	6
12:25:02	92	97	55	5
12:25:02	92	97	55	5
12:25:02	91	97	55	5
12:25:02	90	97	55	5
12:25:03	89	97	55	5
12:25:03	88	97	55	5
12:25:03	87	97	55	5
12:25:03	85	97	55	5
12:25:03	84	97	55	5
12:25:03	82	97	55	5
12:25:03	81	97	55	5
12:25:03	80	97	55	5
12:25:03	78	97	55	5
12:25:03	77	97	55	5
12:25:03	76	97	55	5
12:25:03	74	97	55	5
12:25:03	73	97	55	5
12:25:03	72	97	55	5
12:25:03	71	97	55	5
12:25:03	70	97	55	5
12:25:03	69	97	55	5
12:25:03	67	97	55	5
12:25:03	66	97	55	5
12:25:03	65	97	55	5
12:25:03	63	97	55	5
12:25:03	62	97	55	5
12:25:03	60	97	55	5
12:25:03	59	97	55	5
12:25:03	57	97	55	5
12:25:03	56	97	55	5
12:25:03	54	97	55	5
12:25:03	52	97	55	5
12:25:03	51	97	55	5
12:25:03	49	97	55	5
12:25:03	48	97	55	5
12:25:03	47	97	55	5
12:25:03	45	97	55	5
12:25:03	44	97	55	5
12:25:03	43	97	55	5
12:25:03	41	97	55	5
12:25:03	40	97	55	5
12:25:03	39	97	55	5
12:25:03	38	97	55	5
12:25:03	37	97	55	5
12:25:03	35	97	55	5
12:25:03	34	97	55	5
12:25:03	33	97	55	5
12:25:03	32	97	55	5
12:25:03	31	97	55	5
12:25:03	30	97	55	5
12:25:03	29	97	55	5
12:25:03	28	97	55	5
12:25:03	27	97	55	5
12:25:03	26	97	55	5
12:25:03	25	97	55	5
12:25:03	23	97	55	5
12:25:03	22	97	55	5
12:25:03	21	97	55	5
12:25:03	20	97	55	5
12:25:03	19	97	55	5
12:25:03	17	97	55	5
12:25:03	16	97	55	5
12:25:03	15	97	55	5
12:25:03	14	97	55	5
12:25:03	13	97	55	5
12:25:03	12	97	55	5
12:25:03	11	97	55	5
12:25:03	11	97	55	5
12:25:03	10	97	55	5
12:25:03	9	97	55	5
12:25:03	8	97	55	5
12:25:03	8	97	55	5
12:25:03	7	97	55	5
12:25:03	6	97	55	5
12:25:03	6	97	55	5
12:25:03	5	97	55	5
12:25:03	5	97	55	5
12:25:03	5	97	55	5
12:25:03	5	97	55	5
12:25:03	5	97	55	5
12:25:03	5	97	55	5
12:25:03	5	97	55	5
12:25:03	7	97	55	5
12:25:03	9	97	55	5
12:25:03	13	97	55	5
12:25:03	17	97	55	5
12:25:03	23	97	55	5
12:25:03	29	97	55	5
12:25:03	35	97	55	5
12:25:03	42	97	55	5
12:25:03	49	97	55	5
12:25:03	56	97	55	5
12:25:03	62	97	55	5
12:25:03	68	97	55	5
12:25:03	73	97	55	5
12:25:03	77	97	55	5
12:25:03	81	97	55	5
12:25:03	83	97	55	5
12:25:03	85	97	55	5
12:25:03	86	97	55	5
12:25:03	87	97	55	5
12:25:03	87	97	55	5
12:25:04	87	97	55	5
12:25:04	87	97	55	5
12:25:04	86	97	55	5
12:25:04	86	97	55	5
12:25:04	85	97	55	5
12:25:04	84	97	55	5
12:25:04	83	97	55	5
12:25:04	81	97	55	5
12:25:04	80	97	55	5
12:25:04	78	97	55	5
12:25:04	77	97	55	5
12:25:04	75	97	55	5
12:25:04	73	97	55	5
12:25:04	72	97	55	5
12:25:04	70	97	55	5
12:25:04	69	97	55	5
12:25:04	67	97	55	5
12:25:04	66	97	55	5
12:25:04	65	97	55	5
12:25:04	64	97	55	5
12:25:04	63	97	55	5
12:25:04	62	97	55	5
12:25:04	61	97	55	5
12:25:04	59	97	55	5
12:25:04	58	97	55	5
12:25:04	57	97	55	5
12:25:04	55	97	55	5
12:25:04	54	97	55	5
12:25:04	52	97	55	5
12:25:04	50	97	55	5
12:25:04	49	97	55	5
12:25:04	47	97	55	5
12:25:04	45	97	55	5
12:25:04	43	97	55	5
12:25:04	42	97	55	5
12:25:04	40	97	55	5
12:25:04	39	97	55	5
12:25:04	37	97	55	5
12:25:04	35	97	55	5
12:25:04	34	97	55	5
12:25:04	33	97	55	5
12:25:04	31	97	55	5
12:25:04	30	97	55	5
12:25:04	29	97	55	5
12:25:04	28	97	55	5
12:25:04	26	97	55	5
12:25:04	25	97	55	5
12:25:04	24	97	55	5
12:25:04	23	97	55	5
12:25:04	22	97	55	5
12:25:04	21	97	55	5
12:25:04	20	97	55	5
12:25:04	19	97	55	5
12:25:04	17	97	55	5
12:25:04	16	97	55	5
12:25:04	15	97	55	5
12:25:04	14	97	55	5
12:25:04	13	97	55	5
12:25:04	12	97	55	5
12:25:04	11	97	55	5
12:25:04	10	97	55	5
12:25:04	9	97	55	5
12:25:04	8	97	55	5
12:25:04	7	97	55	5
12:25:04	7	97	55	5
12:25:04	6	97	55	5
12:25:04	5	97	55	5
12:25:04	5	97	55	5
12:25:04	5	97	55	5
12:25:04	5	97	55	5
12:25:04	5	97	55	5
12:25:04	5	97	55	5
12:25:04	5	97	55	5
12:25:04	5	97	55	5
12:25:04	5	97	55	5
12:25:04	5	97	55	5
12:25:04	5	97	55	5
12:25:04	5	97	55	5
12:25:04	5	97	55	5
12:25:04	5	97	55	5
12:25:04	5	97	55	5
12:25:04	7	97	55	5
12:25:04	9	97	55	5
12:25:04	12	97	55	5
12:25:04	15	97	55	5
12:25:04	20	97	55	5
12:25:04	25	97	55	5
12:25:04	31	97	55	5
12:25:04	36	97	55	5
12:25:04	42	97	55	5
12:25:04	48	97	55	5
12:25:04	53	97	55	5
12:25:04	58	97	55	5
12:25:04	62	97	55	5
12:25:04	65	97	55	5
12:25:04	68	97	55	5
12:25:04	70	97	55	5
12:25:04	71	97	55	5
12:25:04	71	97	55	5
12:25:04	72	97	55	5
12:25:04	72	97	55	5
12:25:05	71	97	55	5
12:25:05	71	97	55	5
12:25:05	70	97	55	5
12:25:05	69	97	55	5
12:25:05	68	97	55	5
12:25:05	67	97	55	5
12:25:05	66	97	55	5
12:25:05	65	97	55	5
12:25:05	64	97	55	5
12:25:05	63	97	55	5
12:25:05	62	97	55	5
12:25:05	61	97	55	5
12:25:05	60	97	55	5
12:25:05	59	97	55	5
12:25:05	58	97	55	5
12:25:05	57	97	55	5
12:25:05	56	97	55	5
12:25:05	56	97	55	5
12:25:05	55	97	55	5
12:25:05	54	97	55	5
12:25:05	53	97	55	5
12:25:05	53	97	55	5
12:25:05	52	97	55	5
12:25:05	51	97	55	5
12:25:05	50	97	55	5
12:25:05	48	97	55	5
12:25:05	47	97	55	5
12:25:05	46	97	55	5
12:25:05	44	97	55	5
12:25:05	43	97	55	5
12:25:05	41	97	55	5
12:25:05	40	97	55	5
12:25:05	38	97	55	5
12:25:05	37	97	55	5
12:25:05	35	97	55	5
12:25:05	34	97	55	5
12:25:05	33	97	55	5
12:25:05	31	97	55	5
12:25:05	30	97	55	5
12:25:05	29	97	55	5
12:25:05	28	97	55	5
12:25:05	27	97	55	5
12:25:05	26	97	55	5
12:25:05	25	97	55	5
12:25:05	24	97	55	5
12:25:05	23	97	55	5
12:25:05	22	97	55	5
12:25:05	21	97	55	5
12:25:05	20	97	55	5
12:25:05	20	97	55	5
12:25:05	19	97	55	5
12:25:05	18	97	55	5
12:25:05	17	97	55	5
12:25:05	17	97	55	5
12:25:05	16	97	55	5
12:25:05	15	97	55	5
12:25:05	15	97	55	5
12:25:05	14	97	55	5
12:25:05	13	97	55	5
12:25:05	12	97	55	5
12:25:05	12	97	55	5
12:25:05	11	97	55	5
12:25:05	10	97	55	5
12:25:05	9	97	55	5
12:25:05	9	97	55	5
12:25:05	8	97	55	5
12:25:05	8	97	55	5
12:25:05	7	97	55	5
12:25:05	6	97	55	5
12:25:05	6	97	55	5
12:25:05	5	97	55	5
12:25:05	5	97	55	5
12:25:05	5	97	55	5
12:25:05	5	97	55	5
12:25:05	5	97	55	5
12:25:05	5	97	55	5
12:25:05	6	97	55	5
12:25:05	8	97	55	5
12:25:05	11	97	55	5
12:25:05	14	97	55	5
12:25:05	19	97	55	5
12:25:05	24	97	55	5
12:25:05	30	97	55	5
12:25:05	36	97	55	5
12:25:05	43	97	55	5
12:25:05	49	97	55	5
12:25:05	55	97	55	5
12:25:05	60	97	55	5
12:25:05	65	97	55	5
12:25:05	69	97	55	5
12:25:05	72	97	55	5
12:25:05	75	97	55	5
12:25:05	76	97	55	5
12:25:05	77	97	55	5
12:25:05	78	97	55	5
12:25:05	78	97	55	5
12:25:05	77	97	55	5
12:25:05	77	97	59	5
12:25:05	76	97	59	5
12:25:05	76	97	59	5
12:25:05	75	97	59	5
12:25:06	74	97	59	5
12:25:06	73	97	59	5
12:25:06	72	97	59	5
12:25:06	71	97	59	5
12:25:06	70	97	59	5
12:25:06	69	97	59	5
12:25:06	68	97	59	5
12:25:06	68	97	59	5
12:25:06	67	97	59	5
12:25:06	66	97	59	5
12:25:06	65	97	59	5
12:25:06	65	97	59	5
12:25:06	64	97	59	5
12:25:06	64	97	59	5
12:25:06	64	97	59	5
12:25:06	63	97	59	5
12:25:06	62	97	59	5
12:25:06	61	97	59	5
12:25:06	60	97	59	5
12:25:06	59	97	59	5
12:25:06	58	97	59	5
12:25:06	56	97	59	5
12:25:06	54	97	59	5
12:25:06	53	97	59	5
12:25:06	51	97	59	5
12:25:06	49	97	59	5
12:25:06	47	97	59	5
12:25:06	44	97	59	5
12:25:06	42	97	59	5
12:25:06	40	97	59	5
12:25:06	37	97	59	5
12:25:06	35	97	59	5
12:25:06	32	97	59	5
12:25:06	29	97	59	5
12:25:06	26	97	59	5
12:25:06	24	97	59	5
12:25:06	21	97	59	5
12:25:06	17	97	59	5
12:25:06	14	97	59	5
12:25:06	11	97	59	5
12:25:06	8	97	59	5
12:25:06	5	97	59	5
12:25:06	5	97	59	5
12:25:06	5	97	59	5
12:25:06	5	97	59	5
12:25:06	5	97	59	5
12:25:06	5	97	59	5
12:25:06	5	97	59	5
12:25:06	5	97	59	5
12:25:06	5	97	59	5
12:25:06	5	97	59	5
12:25:06	5	97	59	5
12:25:06	5	97	59	5
12:25:06	5	97	59	5
12:25:06	5	97	59	5
12:25:06	5	97	59	5
12:25:06	5	97	59	5
12:25:06	5	97	59	5
12:25:06	5	97	59	5
12:25:06	6	97	59	5
12:25:06	6	97	59	5
12:25:06	7	97	59	5
12:25:06	7	97	59	5
12:25:06	8	97	59	5
12:25:06	8	97	59	5
12:25:06	9	97	59	5
12:25:06	9	97	59	5
12:25:06	9	97	59	5
12:25:06	10	97	59	5
12:25:06	10	97	59	5
12:25:06	10	97	59	5
12:25:06	10	97	59	5
12:25:06	10	97	59	5
12:25:06	11	97	59	5
12:25:06	11	97	59	5
12:25:06	11	97	59	5
12:25:06	12	97	59	5
12:25:06	13	97	59	5
12:25:06	15	97	59	5
12:25:06	17	97	59	5
12:25:06	20	97	59	5
12:25:06	24	97	59	5
12:25:06	28	97	59	5
12:25:06	32	97	59	5
12:25:06	38	97	59	5
12:25:06	43	97	59	5
12:25:06	48	97	59	5
12:25:06	53	97	59	5
12:25:06	58	97	59	5
12:25:06	62	97	59	5
12:25:06	66	97	59	5
12:25:06	69	97	59	5
12:25:06	71	97	59	5
12:25:06	73	97	59	5
12:25:06	74	97	59	5
12:25:06	75	97	59	5
12:25:06	76	97	59	5
12:25:06	76	97	59	5
12:25:06	76	97	59	5
12:25:07	76	97	59	5
12:25:07	76	97	59	5
12:25:07	76	97	59	5
12:25:07	75	97	59	5
12:25:07	75	97	59	5
12:25:07	74	97	59	5
12:25:07	74	97	59	5
12:25:07	73	97	59	5
12:25:07	73	97	59	5
12:25:07	72	97	59	5
12:25:07	72	97	59	5
12:25:07	71	97	59	5
12:25:07	71	97	59	5
12:25:07	70	97	59	5
12:25:07	70	97	59	5
12:25:07	70	97	59	5
12:25:07	69	97	59	5
12:25:07	69	97	59	5
12:25:07	69	97	59	5
12:25:07	68	97	59	5
12:25:07	68	97	59	5
12:25:07	67	97	59	5
12:25:07	66	97	59	5
12:25:07	66	97	59	5
12:25:07	65	97	59	5
12:25:07	64	97	59	5
12:25:07	63	97	59	5
12:25:07	62	97	59	5
12:25:07	61	97	59	5
12:25:07	59	97	59	5
12:25:07	58	97	59	5
12:25:07	57	97	59	5
12:25:07	56	97	59	5
12:25:07	55	97	59	5
12:25:07	54	97	59	5
12:25:07	53	97	59	5
12:25:07	52	97	59	5
12:25:07	51	97	59	5
12:25:07	50	97	59	5
12:25:07	49	97	59	5
12:25:07	48	97	59	5
12:25:07	47	97	59	5
12:25:07	47	97	59	5
12:25:07	46	97	59	5
12:25:07	45	97	59	5
12:25:07	44	97	59	5
12:25:07	43	97	59	5
12:25:07	42	97	59	5
12:25:07	41	97	59	5
12:25:07	40	97	59	5
12:25:07	40	97	59	5
12:25:07	39	97	59	5
12:25:07	38	97	59	5
12:25:07	37	97	59	5
12:25:07	35	97	59	5
12:25:07	34	97	59	5
12:25:07	33	97	59	5
12:25:07	32	97	59	5
12:25:07	31	97	59	5
12:25:07	30	97	59	5
12:25:07	29	97	59	5
12:25:07	28	97	59	5
12:25:07	28	97	59	5
12:25:07	27	97	59	5
12:25:07	26	97	59	5
12:25:07	25	97	59	5
12:25:07	25	97	59	5
12:25:07	24	97	59	5
12:25:07	24	97	59	5
12:25:07	23	97	59	5
12:25:07	22	97	59	5
12:25:07	22	97	59	5
12:25:07	21	97	59	5
12:25:07	21	97	59	5
12:25:07	20	97	59	5
12:25:07	20	97	59	5
12:25:07	19	97	59	5
12:25:07	19	97	59	5
12:25:07	19	97	59	5
12:25:07	19	97	59	5
12:25:07	20	97	59	5
12:25:07	21	97	59	5
12:25:07	23	97	59	5
12:25:07	26	97	59	5
12:25:07	30	97	59	5
12:25:07	34	97	59	5
12:25:07	39	97	59	5
12:25:07	44	97	59	5
12:25:07	49	97	59	5
12:25:07	54	97	59	5
12:25:07	59	97	59	5
12:25:07	63	97	59	5
12:25:07	67	97	59	5
12:25:07	70	97	59	5
12:25:07	73	97	59	5
12:25:07	74	97	59	5
12:25:07	76	97	59	5
12:25:07	76	97	59	5
12:25:07	77	97	59	5
12:25:07	77	97	59	5
12:25:08	76	97	59	5
12:25:08	76	97	59	5
12:25:08	75	97	59	5
12:25:08	74	97	59	5
12:25:08	73	97	59	5
12:25:08	73	97	59	5
12:25:08	72	97	59	5
12:25:08	71	97	59	5
12:25:08	70	97	59	5
12:25:08	70	97	59	5
12:25:08	69	97	59	5
12:25:08	68	97	59	5
12:25:08	68	97	59	5
12:25:08	67	97	59	5
12:25:08	67	97	59	5
12:25:08	67	97	59	5
12:25:08	66	97	59	5
12:25:08	66	97	59	5
12:25:08	66	97	59	5
12:25:08	66	97	59	5
12:25:08	66	97	59	5
12:25:08	65	97	59	5
12:25:08	65	97	59	5
12:25:08	64	97	59	5
12:25:08	64	97	59	5
12:25:08	63	97	59	5
12:25:08	62	97	59	5
12:25:08	61	97	59	5
12:25:08	60	97	59	5
12:25:08	59	97	59	5
12:25:08	58	97	59	5
12:25:08	56	97	59	5
12:25:08	55	97	59	5
12:25:08	54	97	59	5
12:25:08	52	97	59	5
12:25:08	51	97	59	5
12:25:08	50	97	59	5
12:25:08	49	97	59	5
12:25:08	47	97	59	5
12:25:08	46	97	59	5
12:25:08	45	97	59	5
12:25:08	44	97	59	5
12:25:08	43	97	59	5
12:25:08	42	97	59	5
12:25:08	42	97	59	5
12:25:08	41	97	59	5
12:25:08	40	97	59	5
12:25:08	39	97	59	5
12:25:08	39	97	59	5
12:25:08	38	97	59	5
12:25:08	37	97	59	5
12:25:08	36	97	59	5
12:25:08	36	97	59	5
12:25:08	35	97	59	5
12:25:08	34	97	59	5
12:25:08	33	97	59	5
12:25:08	33	97	59	5
12:25:08	32	97	59	5
12:25:08	31	97	59	5
12:25:08	30	97	59	5
12:25:08	30	97	59	5
12:25:08	29	97	59	5
12:25:08	28	97	59	5
12:25:08	28	97	59	5
12:25:08	27	97	59	5
12:25:08	26	97	59	5
12:25:08	26	97	59	5
12:25:08	25	97	59	5
12:25:08	25	97	59	5
12:25:08	25	97	59	5
12:25:08	26	97	59	5
12:25:08	27	97	59	5
12:25:08	29	97	59	5
12:25:08	32	97	59	5
12:25:08	35	97	59	5
12:25:08	40	97	59	5
12:25:08	45	97	59	5
12:25:08	50	97	59	5
12:25:08	56	97	59	5
12:25:08	62	97	59	5
12:25:08	67	97	59	5
12:25:08	72	97	59	5
12:25:08	77	97	59	5
12:25:08	80	97	59	5
12:25:08	83	97	59	5
12:25:08	85	97	59	5
12:25:08	86	97	59	5
12:25:08	87	97	59	5
12:25:08	88	97	59	5
12:25:08	87	97	59	5
12:25:08	87	97	59	5
12:25:08	86	97	59	5
12:25:08	86	97	59	5
12:25:08	85	97	59	5
12:25:08	84	97	59	5
12:25:08	83	97	59	5
12:25:08	82	97	59	5
12:25:08	81	97	60	5
12:25:08	80	97	60	5
12:25:09	79	97	60	5
12:25:09	78	97	60	5
12:25:09	77	97	60	5
12:25:09	76	97	60	5
12:25:09	76	97	60	5
12:25:09	75	97	60	5
12:25:09	74	97	60	5
12:25:09	73	97	60	5
12:25:09	73	97	60	5
12:25:09	72	97	60	5
12:25:09	72	97	60	5
12:25:09	71	97	60	5
12:25:09	70	97	60	5
12:25:09	70	97	60	5
12:25:09	69	97	60	5
12:25:09	68	97	60	5
12:25:09	67	97	60	5
12:25:09	65	97	60	5
12:25:09	64	97	60	5
12:25:09	63	97	60	5
12:25:09	61	97	60	5
12:25:09	59	97	60	5
12:25:09	57	97	60	5
12:25:09	55	97	60	5
12:25:09	54	97	60	5
12:25:09	52	97	60	5
12:25:09	50	97	60	5
12:25:09	48	97	60	5
12:25:09	46	97	60	5
12:25:09	44	97	60	5
