Time	Pleth	SPO2	PR	SI
12:25:44	54	99	100	4
12:25:44	55	99	100	4
12:25:44	56	99	100	4
12:25:44	57	99	100	4
12:25:44	58	99	100	4
12:25:44	58	99	100	4
12:25:44	59	99	100	4
12:25:44	59	99	100	4
12:25:44	59	99	100	4
12:25:44	58	99	100	4
12:25:44	58	99	100	4
12:25:44	57	99	100	4
12:25:44	57	99	100	4
12:25:44	56	99	100	4
12:25:44	56	99	100	4
12:25:44	55	99	100	4
12:25:44	54	99	100	4
12:25:44	54	99	100	4
12:25:44	53	99	100	4
12:25:44	53	99	100	4
12:25:44	53	99	100	4
12:25:44	52	99	100	4
12:25:44	52	99	100	4
12:25:44	52	99	100	4
12:25:44	52	99	100	4
12:25:44	52	99	100	4
12:25:44	52	99	100	4
12:25:44	52	99	100	4
12:25:44	52	99	100	4
12:25:44	52	99	100	4
12:25:44	52	99	100	4
12:25:44	52	99	100	4
12:25:44	51	99	100	4
12:25:44	51	99	100	4
12:25:44	51	99	100	4
12:25:44	51	99	100	4
12:25:44	50	99	100	4
12:25:44	50	99	100	4
12:25:44	50	99	100	4
12:25:44	49	99	100	4
12:25:44	49	99	100	4
12:25:44	49	99	100	4
12:25:44	48	99	100	4
12:25:44	48	99	100	4
12:25:44	48	99	100	4
12:25:44	48	99	100	4
12:25:44	48	99	100	4
12:25:44	47	99	100	4
12:25:44	47	99	100	4
12:25:44	47	99	100	4
12:25:44	47	99	100	4
12:25:44	47	99	100	4
12:25:44	47	99	100	4
12:25:44	47	99	100	4
12:25:44	47	99	100	4
12:25:44	47	99	100	4
12:25:44	47	99	100	4
12:25:44	47	99	100	4
12:25:45	47	99	100	4
12:25:45	47	99	100	4
12:25:45	47	99	100	4
12:25:45	47	99	100	4
12:25:45	48	99	100	4
12:25:45	48	99	100	4
12:25:45	49	99	100	4
12:25:45	51	99	100	4
12:25:45	52	99	100	4
12:25:45	53	99	100	4
12:25:45	55	99	100	4
12:25:45	56	99	100	4
12:25:45	58	99	100	4
12:25:45	59	99	100	4
12:25:45	60	99	100	4
12:25:45	61	99	100	4
12:25:45	62	99	100	4
12:25:45	62	99	100	4
12:25:45	63	99	100	4
12:25:45	63	99	100	4
12:25:45	63	99	100	4
12:25:45	62	99	100	3
12:25:45	62	99	100	3
12:25:45	62	99	100	3
12:25:45	61	99	100	3
12:25:45	61	99	100	3
12:25:45	60	99	100	3
12:25:45	60	99	100	3
12:25:45	60	99	100	3
12:25:45	59	99	100	3
12:25:45	59	99	100	3
12:25:45	59	99	100	3
12:25:45	59	99	100	3
12:25:45	59	99	100	3
12:25:45	59	99	100	3
12:25:45	59	99	100	3
12:25:45	59	99	100	3
12:25:45	59	99	100	3
12:25:45	59	99	100	3
12:25:45	59	99	100	3
12:25:45	59	99	100	3
12:25:45	59	99	100	3
12:25:45	59	99	100	3
12:25:45	59	99	100	3
12:25:45	59	99	100	3
12:25:45	59	99	100	3
12:25:45	58	99	100	3
12:25:45	58	99	100	3
12:25:45	58	99	100	3
12:25:45	57	99	100	3
12:25:45	57	99	100	3
12:25:45	57	99	100	3
12:25:45	57	99	100	3
12:25:45	56	99	100	3
12:25:45	56	99	100	3
12:25:45	56	99	100	3
12:25:45	55	99	100	3
12:25:45	55	99	100	3
12:25:45	55	99	100	3
12:25:45	55	99	100	3
12:25:45	55	99	100	3
12:25:45	55	99	100	3
12:25:45	54	99	100	3
12:25:45	54	99	100	3
12:25:45	54	99	100	3
12:25:45	54	99	100	3
12:25:45	53	99	100	3
12:25:45	53	99	100	3
12:25:45	53	99	100	3
12:25:45	53	99	100	3
12:25:45	53	99	100	3
12:25:45	54	99	100	3
12:25:45	54	99	100	3
12:25:45	55	99	100	3
12:25:45	56	99	100	3
12:25:45	58	99	100	3
12:25:45	59	99	100	3
12:25:45	61	99	100	3
12:25:45	62	99	100	3
12:25:45	64	99	100	3
12:25:45	65	99	100	3
12:25:45	66	99	100	3
12:25:45	67	99	100	3
12:25:45	67	99	100	3
12:25:45	68	99	100	3
12:25:45	68	99	100	3
12:25:45	68	99	100	3
12:25:45	67	99	100	3
12:25:45	66	99	100	3
12:25:45	66	99	100	3
12:25:45	65	99	100	3
12:25:45	64	99	100	3
12:25:45	62	99	100	3
12:25:45	61	99	100	3
12:25:45	60	99	100	3
12:25:45	60	99	100	3
12:25:45	59	99	100	3
12:25:45	58	99	100	3
12:25:45	58	99	100	3
12:25:45	57	99	100	3
12:25:46	57	99	100	3
12:25:46	57	99	100	3
12:25:46	57	99	100	3
12:25:46	57	99	100	3
12:25:46	57	99	100	3
12:25:46	57	99	100	3
12:25:46	57	99	100	3
12:25:46	57	99	100	3
12:25:46	57	99	100	3
12:25:46	57	99	100	3
12:25:46	57	99	100	3
12:25:46	57	99	100	3
12:25:46	57	99	100	3
12:25:46	57	99	100	3
12:25:46	56	99	100	3
12:25:46	56	99	100	3
12:25:46	55	99	100	3
12:25:46	55	99	100	3
12:25:46	54	99	100	3
12:25:46	54	99	100	3
12:25:46	53	99	100	3
12:25:46	53	99	100	3
12:25:46	52	99	100	3
12:25:46	52	99	100	3
12:25:46	51	99	100	3
12:25:46	51	99	100	3
12:25:46	50	99	100	3
12:25:46	50	99	100	3
12:25:46	50	99	100	3
12:25:46	50	99	100	3
12:25:46	50	99	100	3
12:25:46	50	99	100	3
12:25:46	50	99	100	3
12:25:46	51	99	100	3
12:25:46	52	99	100	3
12:25:46	53	99	100	3
12:25:46	54	99	100	3
12:25:46	56	99	100	3
12:25:46	57	99	100	3
12:25:46	59	99	100	3
12:25:46	60	99	100	3
12:25:46	61	99	100	3
12:25:46	62	99	100	3
12:25:46	63	99	100	3
12:25:46	63	99	100	3
12:25:46	64	99	100	3
12:25:46	64	99	100	3
12:25:46	63	99	100	3
12:25:46	63	99	100	3
12:25:46	62	99	100	3
12:25:46	61	99	100	3
12:25:46	60	99	100	3
12:25:46	58	99	100	3
12:25:46	57	99	100	3
12:25:46	56	99	100	3
12:25:46	55	99	100	3
12:25:46	54	99	100	3
12:25:46	54	99	100	3
12:25:46	53	99	100	3
12:25:46	52	99	100	3
12:25:46	52	99	100	3
12:25:46	52	99	100	3
12:25:46	52	99	100	3
12:25:46	52	99	100	3
12:25:46	52	99	100	3
12:25:46	52	99	100	3
12:25:46	52	99	100	3
12:25:46	52	99	100	3
12:25:46	52	99	100	3
12:25:46	52	99	100	3
12:25:46	52	99	100	3
12:25:46	51	99	100	3
12:25:46	51	99	100	3
12:25:46	51	99	100	3
12:25:46	50	99	100	3
12:25:46	50	99	100	3
12:25:46	49	99	100	3
12:25:46	49	99	100	3
12:25:46	48	99	100	3
12:25:46	48	99	100	3
12:25:46	47	99	100	3
12:25:46	47	99	100	3
12:25:46	46	99	100	3
12:25:46	46	99	100	3
12:25:46	45	99	100	3
12:25:46	45	99	100	3
12:25:46	44	99	100	3
12:25:46	44	99	100	3
12:25:46	44	99	100	3
12:25:46	44	99	100	3
12:25:46	45	99	100	3
12:25:46	45	99	100	3
12:25:46	46	99	100	3
12:25:46	47	99	100	3
12:25:46	48	99	100	3
12:25:46	50	99	100	3
12:25:46	51	99	100	3
12:25:46	53	99	100	3
12:25:46	54	99	100	3
12:25:46	55	99	100	3
12:25:47	56	99	100	3
12:25:47	57	99	100	3
12:25:47	57	99	100	3
12:25:47	58	99	100	3
12:25:47	57	99	100	3
12:25:47	57	99	100	3
12:25:47	56	99	100	3
12:25:47	55	99	100	3
12:25:47	54	99	100	3
12:25:47	53	99	100	3
12:25:47	52	99	100	3
12:25:47	50	99	100	3
12:25:47	49	99	100	3
12:25:47	48	99	100	3
12:25:47	47	99	100	3
12:25:47	46	99	100	3
12:25:47	46	99	100	3
12:25:47	45	99	100	3
12:25:47	45	99	100	3
12:25:47	44	99	100	3
12:25:47	44	99	100	3
12:25:47	44	98	100	3
12:25:47	44	98	100	3
12:25:47	44	98	100	3
12:25:47	44	98	100	3
12:25:47	45	98	100	3
12:25:47	45	98	100	3
12:25:47	45	98	100	3
12:25:47	44	98	100	3
12:25:47	44	98	100	3
12:25:47	44	98	100	3
12:25:47	44	98	100	3
12:25:47	43	98	100	3
12:25:47	43	98	100	3
12:25:47	43	98	100	3
12:25:47	42	98	100	3
12:25:47	42	98	100	3
12:25:47	41	98	100	3
12:25:47	41	98	100	3
12:25:47	40	98	100	3
12:25:47	40	98	100	3
12:25:47	39	98	100	3
12:25:47	39	98	100	3
12:25:47	39	98	100	3
12:25:47	40	98	100	3
12:25:47	40	98	100	3
12:25:47	41	98	100	3
12:25:47	42	98	100	3
12:25:47	43	98	100	3
12:25:47	45	98	100	3
12:25:47	47	98	100	3
12:25:47	48	98	100	3
12:25:47	50	98	100	3
12:25:47	52	98	100	3
12:25:47	53	98	100	3
12:25:47	55	98	100	3
12:25:47	56	98	100	3
12:25:47	56	98	100	3
12:25:47	56	98	100	3
12:25:47	56	98	100	3
12:25:47	56	98	100	3
12:25:47	55	98	100	3
12:25:47	54	98	100	3
12:25:47	53	98	100	3
12:25:47	52	98	100	3
12:25:47	50	98	100	3
12:25:47	49	98	100	3
12:25:47	48	98	100	3
12:25:47	47	98	100	3
12:25:47	46	98	100	3
12:25:47	45	98	100	3
12:25:47	44	98	100	3
12:25:47	44	98	100	3
12:25:47	43	98	100	3
12:25:47	43	98	100	3
12:25:47	43	98	100	3
12:25:47	43	98	100	3
12:25:47	43	98	100	3
12:25:47	43	98	100	3
12:25:47	44	98	100	3
12:25:47	44	98	100	3
12:25:47	44	98	100	3
12:25:47	44	98	100	3
12:25:47	44	98	100	3
12:25:47	43	98	100	3
12:25:47	43	98	100	3
12:25:47	43	98	100	3
12:25:47	43	98	100	3
12:25:47	42	98	100	3
12:25:47	42	98	100	3
12:25:47	41	98	100	3
12:25:47	41	98	100	3
12:25:47	40	98	100	3
12:25:47	40	98	100	3
12:25:47	39	98	100	3
12:25:47	39	98	100	3
12:25:47	39	98	100	3
12:25:47	39	98	100	3
12:25:47	40	98	100	3
12:25:47	41	98	100	3
12:25:48	42	98	100	3
12:25:48	44	98	100	3
12:25:48	45	98	100	3
12:25:48	47	98	100	3
12:25:48	49	98	100	3
12:25:48	51	98	100	3
12:25:48	53	98	100	3
12:25:48	54	98	100	3
12:25:48	56	98	100	3
12:25:48	57	98	100	3
12:25:48	57	98	100	3
12:25:48	57	98	100	3
12:25:48	57	98	100	3
12:25:48	56	98	100	3
12:25:48	55	98	100	3
12:25:48	54	98	100	3
12:25:48	53	98	100	3
12:25:48	51	98	100	3
12:25:48	50	98	100	3
12:25:48	49	98	100	3
12:25:48	47	98	100	3
12:25:48	46	98	107	3
12:25:48	45	98	107	3
12:25:48	44	98	107	3
12:25:48	44	98	107	3
12:25:48	43	98	107	3
12:25:48	43	98	107	3
12:25:48	43	98	107	3
12:25:48	43	98	107	3
12:25:48	43	98	107	3
12:25:48	43	98	107	3
12:25:48	43	98	107	3
12:25:48	44	98	107	3
12:25:48	44	98	107	3
12:25:48	44	98	107	3
12:25:48	44	98	107	3
12:25:48	44	98	107	3
12:25:48	43	98	107	3
12:25:48	43	98	107	3
12:25:48	43	98	107	3
12:25:48	42	98	107	3
12:25:48	42	98	107	3
12:25:48	41	98	107	3
12:25:48	41	98	107	3
12:25:48	40	98	107	3
12:25:48	40	98	107	3
12:25:48	40	98	107	3
12:25:48	40	98	107	3
12:25:48	40	98	107	3
12:25:48	40	98	107	3
12:25:48	41	98	107	3
12:25:48	43	98	107	3
12:25:48	44	98	107	3
12:25:48	46	98	107	3
12:25:48	48	98	107	3
12:25:48	50	98	107	3
12:25:48	52	98	107	3
12:25:48	54	98	107	3
12:25:48	56	98	107	3
12:25:48	58	98	107	3
12:25:48	59	98	107	3
12:25:48	59	98	107	3
12:25:48	60	98	107	3
12:25:48	59	98	107	3
12:25:48	59	98	107	3
12:25:48	58	98	107	3
12:25:48	57	98	107	3
12:25:48	55	98	107	3
12:25:48	54	98	107	3
12:25:48	52	98	107	3
12:25:48	51	98	107	3
12:25:48	49	98	107	3
12:25:48	48	98	107	3
12:25:48	47	98	107	3
12:25:48	46	98	107	3
12:25:48	46	98	107	3
12:25:48	45	98	107	3
12:25:48	45	98	107	3
12:25:48	45	98	107	3
12:25:48	45	98	107	3
12:25:48	45	98	107	3
12:25:48	45	98	107	3
12:25:48	46	98	107	3
12:25:48	46	98	107	3
12:25:48	46	98	107	3
12:25:48	46	98	107	3
12:25:48	46	98	107	3
12:25:48	46	98	107	3
12:25:48	46	98	107	3
12:25:48	45	98	107	3
12:25:48	45	98	107	3
12:25:48	45	98	107	3
12:25:48	44	98	107	3
12:25:48	43	98	107	3
12:25:48	43	98	107	3
12:25:48	42	98	107	3
12:25:48	42	98	107	3
12:25:48	42	98	107	3
12:25:48	42	98	107	3
12:25:48	42	98	107	3
12:25:49	43	98	107	3
12:25:49	45	98	107	3
12:25:49	46	98	107	3
12:25:49	48	98	107	3
12:25:49	51	98	107	3
12:25:49	53	98	107	3
12:25:49	55	98	107	3
12:25:49	57	98	107	3
12:25:49	59	98	107	3
12:25:49	61	98	107	3
12:25:49	63	98	107	3
12:25:49	63	98	107	3
12:25:49	64	98	107	3
12:25:49	64	98	107	3
12:25:49	63	98	107	3
12:25:49	62	98	107	3
12:25:49	61	98	107	3
12:25:49	60	98	107	3
12:25:49	58	98	107	3
12:25:49	56	98	107	3
12:25:49	55	98	107	3
12:25:49	53	97	107	3
12:25:49	52	97	107	3
12:25:49	50	97	107	3
12:25:49	49	97	107	3
12:25:49	49	97	107	3
12:25:49	48	97	107	3
12:25:49	48	97	107	3
12:25:49	48	97	107	3
12:25:49	48	97	107	3
12:25:49	49	97	107	3
12:25:49	49	97	107	3
12:25:49	49	97	107	3
12:25:49	50	97	107	3
12:25:49	50	97	107	3
12:25:49	50	97	107	3
12:25:49	50	97	107	3
12:25:49	50	97	107	3
12:25:49	49	97	107	3
12:25:49	49	97	107	3
12:25:49	49	97	107	3
12:25:49	48	97	107	3
12:25:49	47	97	107	3
12:25:49	47	97	107	3
12:25:49	46	97	107	3
12:25:49	45	97	107	3
12:25:49	45	97	107	3
12:25:49	45	97	107	3
12:25:49	45	97	107	3
12:25:49	45	97	107	3
12:25:49	46	97	107	3
12:25:49	48	97	107	3
12:25:49	50	97	107	3
12:25:49	52	97	107	3
12:25:49	55	97	107	3
12:25:49	57	97	107	3
12:25:49	60	97	107	3
12:25:49	63	97	107	3
12:25:49	65	97	107	3
12:25:49	67	97	107	3
12:25:49	68	97	107	3
12:25:49	69	97	107	3
12:25:49	69	97	107	3
12:25:49	69	97	107	3
12:25:49	68	97	107	3
12:25:49	67	97	107	3
12:25:49	66	97	107	3
12:25:49	64	97	107	3
12:25:49	62	97	107	3
12:25:49	60	97	107	3
12:25:49	59	97	107	3
12:25:49	57	97	107	3
12:25:49	55	97	107	3
12:25:49	54	97	107	3
12:25:49	53	97	107	3
12:25:49	53	97	107	3
12:25:49	52	97	107	3
12:25:49	52	97	107	3
12:25:49	52	97	107	3
12:25:49	52	97	107	3
12:25:49	53	97	107	3
12:25:49	53	97	107	3
12:25:49	53	97	107	3
12:25:49	54	97	107	3
12:25:49	54	97	107	3
12:25:49	54	97	107	3
12:25:49	54	97	107	3
12:25:49	53	97	107	3
12:25:49	53	97	107	3
12:25:49	53	97	107	3
12:25:49	52	97	107	3
12:25:49	51	97	107	3
12:25:49	51	97	107	3
12:25:49	50	97	107	3
12:25:49	49	97	107	3
12:25:49	48	97	107	3
12:25:49	48	97	107	3
12:25:49	47	97	107	3
12:25:49	47	97	107	3
12:25:49	47	97	107	3
12:25:50	48	97	107	3
12:25:50	49	97	107	3
12:25:50	51	97	107	3
12:25:50	53	97	107	3
12:25:50	56	97	107	3
12:25:50	58	97	107	3
12:25:50	61	97	107	3
12:25:50	64	97	107	3
12:25:50	67	97	107	3
12:25:50	69	97	107	3
12:25:50	71	97	107	3
12:25:50	73	97	107	3
12:25:50	74	97	107	3
12:25:50	74	97	107	3
12:25:50	73	97	107	3
12:25:50	73	97	107	3
12:25:50	71	97	107	3
12:25:50	70	97	107	3
12:25:50	68	97	107	3
12:25:50	66	97	107	3
12:25:50	64	97	107	3
12:25:50	61	98	118	3
12:25:50	60	98	118	3
12:25:50	58	98	118	3
12:25:50	57	98	118	3
12:25:50	56	98	118	3
12:25:50	55	98	118	3
12:25:50	54	98	118	3
12:25:50	54	98	118	3
12:25:50	54	98	118	3
12:25:50	54	98	118	3
12:25:50	54	98	118	3
12:25:50	55	98	118	3
12:25:50	55	98	118	3
12:25:50	55	98	118	3
12:25:50	55	98	118	3
12:25:50	55	98	118	3
12:25:50	55	98	118	3
12:25:50	54	98	118	3
12:25:50	54	98	118	3
12:25:50	53	98	118	3
12:25:50	52	98	118	3
12:25:50	52	98	118	3
12:25:50	51	98	118	3
12:25:50	50	98	118	3
12:25:50	49	98	118	3
12:25:50	48	98	118	3
12:25:50	47	98	118	3
12:25:50	46	98	118	3
12:25:50	45	98	118	3
12:25:50	45	98	118	3
12:25:50	45	98	118	3
12:25:50	45	98	118	3
12:25:50	46	98	118	3
12:25:50	47	98	118	3
12:25:50	49	98	118	3
12:25:50	51	98	118	3
12:25:50	54	98	118	3
12:25:50	57	98	118	3
12:25:50	60	98	118	3
12:25:50	63	98	118	3
12:25:50	66	98	118	3
12:25:50	69	98	118	3
12:25:50	71	98	118	3
12:25:50	73	98	118	3
12:25:50	74	98	118	3
12:25:50	74	98	118	3
12:25:50	74	98	118	3
12:25:50	73	98	118	3
12:25:50	72	98	118	3
12:25:50	70	98	118	3
12:25:50	68	98	118	3
12:25:50	66	98	118	3
12:25:50	63	98	118	3
12:25:50	61	98	118	3
12:25:50	59	98	118	3
12:25:50	57	98	118	3
12:25:50	56	98	118	3
12:25:50	54	98	118	3
12:25:50	53	98	118	3
12:25:50	53	98	118	3
12:25:50	53	98	118	3
12:25:50	53	98	118	3
12:25:50	53	98	118	3
12:25:50	53	98	118	3
12:25:50	53	98	118	3
12:25:50	53	98	118	3
12:25:50	54	98	118	3
12:25:50	54	98	118	3
12:25:50	54	98	118	3
12:25:50	53	98	118	3
12:25:50	53	98	118	3
12:25:50	53	98	118	3
12:25:50	52	98	118	3
12:25:50	51	98	118	3
12:25:50	51	98	118	3
12:25:50	50	98	118	3
12:25:50	49	98	118	3
12:25:50	48	98	118	3
12:25:50	47	98	118	3
12:25:50	46	98	118	3
12:25:51	45	98	118	3
12:25:51	44	98	118	3
12:25:51	43	98	118	3
12:25:51	43	98	118	3
12:25:51	42	98	118	3
12:25:51	42	98	118	3
12:25:51	43	98	118	3
12:25:51	44	98	118	3
12:25:51	46	98	118	3
12:25:51	48	98	118	3
12:25:51	51	98	118	3
12:25:51	54	98	118	3
12:25:51	57	98	118	3
12:25:51	61	98	118	3
12:25:51	64	98	118	3
12:25:51	67	98	118	3
12:25:51	70	98	118	3
12:25:51	72	98	118	3
12:25:51	74	98	118	3
12:25:51	75	98	118	3
12:25:51	76	98	118	3
12:25:51	75	98	118	3
12:25:51	74	98	118	3
12:25:51	73	98	118	3
12:25:51	71	98	118	3
12:25:51	68	98	118	3
12:25:51	66	98	118	3
12:25:51	63	98	118	3
12:25:51	61	98	118	3
12:25:51	59	98	118	3
12:25:51	57	98	118	3
12:25:51	55	98	118	3
12:25:51	54	98	118	3
12:25:51	53	98	118	3
12:25:51	53	98	118	3
12:25:51	52	98	118	3
12:25:51	52	98	118	3
12:25:51	53	98	118	3
12:25:51	53	98	118	3
12:25:51	53	98	118	3
12:25:51	54	98	118	3
12:25:51	54	98	118	3
12:25:51	54	98	118	3
12:25:51	54	98	118	3
12:25:51	54	98	118	3
12:25:51	53	98	118	3
12:25:51	53	98	118	3
12:25:51	52	98	118	3
12:25:51	52	98	118	3
12:25:51	51	98	118	3
12:25:51	50	98	118	3
12:25:51	49	98	118	3
12:25:51	48	98	118	3
12:25:51	47	98	118	3
12:25:51	46	98	118	3
12:25:51	45	98	118	3
12:25:51	44	98	118	3
12:25:51	44	98	118	3
12:25:51	43	98	118	3
12:25:51	43	98	118	3
12:25:51	44	98	118	3
12:25:51	45	98	118	3
12:25:51	46	98	118	3
12:25:51	48	98	118	3
12:25:51	51	98	118	3
12:25:51	54	98	118	3
12:25:51	58	98	118	3
12:25:51	62	98	118	3
12:25:51	65	98	118	3
12:25:51	69	98	118	3
12:25:51	72	98	118	3
12:25:51	74	98	118	3
12:25:51	76	98	118	3
12:25:51	78	98	118	3
12:25:51	78	98	118	3
12:25:51	78	98	118	3
12:25:51	77	98	118	3
12:25:51	75	98	118	3
12:25:51	73	98	118	3
12:25:51	70	98	118	3
12:25:51	68	98	118	3
12:25:51	65	98	118	3
12:25:51	62	98	118	3
12:25:51	60	98	118	3
12:25:51	58	98	118	3
12:25:51	56	98	118	3
12:25:51	55	98	118	3
12:25:51	54	98	118	3
12:25:51	53	98	118	3
12:25:51	53	98	118	3
12:25:51	53	98	118	3
12:25:51	53	98	118	3
12:25:51	53	98	118	3
12:25:51	54	98	118	3
12:25:51	54	98	118	3
12:25:51	54	98	118	3
12:25:51	54	98	118	3
12:25:51	54	98	118	3
12:25:52	54	98	118	3
12:25:52	54	98	118	3
12:25:52	53	98	118	3
12:25:52	53	98	118	3
12:25:52	52	98	118	3
12:25:52	51	98	118	3
12:25:52	50	98	118	3
12:25:52	49	98	118	3
12:25:52	47	98	118	3
12:25:52	46	98	118	3
12:25:52	45	98	118	3
12:25:52	44	98	118	3
12:25:52	43	98	118	3
12:25:52	43	98	118	3
12:25:52	42	98	118	3
12:25:52	43	98	118	3
12:25:52	43	98	118	3
12:25:52	45	98	118	3
12:25:52	47	98	118	3
12:25:52	49	98	118	3
12:25:52	53	98	118	3
12:25:52	56	98	118	3
12:25:52	60	99	115	3
12:25:52	64	99	115	3
12:25:52	68	99	115	3
12:25:52	71	99	115	3
12:25:52	74	99	115	3
12:25:52	77	99	115	3
12:25:52	78	99	115	3
12:25:52	79	99	115	3
12:25:52	79	99	115	3
12:25:52	79	99	115	3
12:25:52	77	99	115	3
12:25:52	75	99	115	3
12:25:52	73	99	115	3
12:25:52	70	99	115	3
12:25:52	67	99	115	3
12:25:52	64	99	115	3
12:25:52	62	99	115	3
12:25:52	59	99	115	3
12:25:52	57	99	115	3
12:25:52	55	99	115	3
12:25:52	54	99	115	3
12:25:52	53	99	115	3
12:25:52	53	99	115	3
12:25:52	53	99	115	3
12:25:52	53	99	115	3
12:25:52	53	99	115	3
12:25:52	54	99	115	3
12:25:52	54	99	115	3
12:25:52	55	99	115	3
12:25:52	55	99	115	3
12:25:52	55	99	115	3
12:25:52	55	99	115	3
12:25:52	55	99	115	3
12:25:52	54	99	115	3
12:25:52	53	99	115	3
12:25:52	53	99	115	3
12:25:52	52	99	115	3
12:25:52	51	99	115	3
12:25:52	49	99	115	3
12:25:52	48	99	115	3
12:25:52	47	99	115	3
12:25:52	46	99	115	3
12:25:52	45	99	115	3
12:25:52	44	99	115	3
12:25:52	43	99	115	3
12:25:52	42	99	115	3
12:25:52	42	99	115	3
12:25:52	43	99	115	3
12:25:52	44	99	115	3
12:25:52	45	99	115	3
12:25:52	48	99	115	3
12:25:52	51	99	115	3
12:25:52	55	99	115	3
12:25:52	59	99	115	3
12:25:52	63	99	115	3
12:25:52	68	99	115	3
12:25:52	72	99	115	3
12:25:52	76	99	115	3
12:25:52	79	99	115	3
12:25:52	81	99	115	3
12:25:52	83	99	115	3
12:25:52	84	99	115	3
12:25:52	84	99	115	3
12:25:52	83	99	115	3
12:25:52	81	99	115	3
12:25:52	79	99	115	3
12:25:52	76	99	115	3
12:25:52	73	99	115	3
12:25:52	70	99	115	3
12:25:52	67	99	115	3
12:25:52	64	99	115	3
12:25:52	62	99	115	3
12:25:52	60	99	115	3
12:25:52	58	99	115	3
12:25:52	57	99	115	3
12:25:52	56	99	115	3
12:25:52	56	99	115	3
12:25:52	56	99	115	3
12:25:53	56	99	115	3
12:25:53	57	99	115	3
12:25:53	57	99	115	3
12:25:53	58	99	115	3
12:25:53	58	99	115	3
12:25:53	58	99	115	3
12:25:53	59	99	115	3
12:25:53	58	99	115	3
12:25:53	58	99	115	3
12:25:53	57	99	115	3
12:25:53	57	99	115	3
12:25:53	56	99	115	3
12:25:53	55	99	115	3
12:25:53	53	99	115	3
12:25:53	52	99	115	3
12:25:53	51	99	115	3
12:25:53	50	99	115	3
12:25:53	48	99	115	3
12:25:53	47	99	115	3
12:25:53	46	99	115	3
12:25:53	45	99	115	3
12:25:53	45	99	115	3
12:25:53	45	99	111	3
12:25:53	45	99	111	3
12:25:53	46	99	111	3
12:25:53	48	99	111	3
12:25:53	51	99	111	3
12:25:53	55	99	111	3
12:25:53	59	99	111	3
12:25:53	64	99	111	3
12:25:53	69	99	111	3
12:25:53	74	99	111	3
12:25:53	79	99	111	3
12:25:53	84	99	111	3
12:25:53	87	99	111	3
12:25:53	90	99	111	3
12:25:53	92	99	111	3
12:25:53	93	99	111	3
12:25:53	93	99	111	3
12:25:53	92	99	111	3
12:25:53	90	99	111	3
12:25:53	88	99	111	3
12:25:53	85	99	111	3
12:25:53	82	99	111	3
12:25:53	78	99	111	3
12:25:53	75	99	111	3
12:25:53	72	99	111	3
12:25:53	69	99	111	3
12:25:53	67	99	111	3
12:25:53	66	99	111	3
12:25:53	64	99	111	3
12:25:53	64	99	111	3
12:25:53	64	99	111	3
12:25:53	64	99	111	3
12:25:53	64	99	111	3
12:25:53	65	99	111	3
12:25:53	65	99	111	3
12:25:53	66	99	111	3
12:25:53	67	99	111	3
12:25:53	67	99	111	3
12:25:53	67	99	111	3
12:25:53	67	99	111	3
12:25:53	66	99	111	3
12:25:53	66	99	111	3
12:25:53	65	99	111	3
12:25:53	64	99	111	3
12:25:53	63	99	111	3
12:25:53	61	99	111	3
12:25:53	60	99	111	3
12:25:53	58	99	111	3
12:25:53	57	99	111	3
12:25:53	55	99	111	3
12:25:53	54	99	111	3
12:25:53	53	99	111	3
12:25:53	51	99	111	3
12:25:53	50	99	111	3
12:25:53	50	99	111	3
12:25:53	49	99	111	3
12:25:53	50	99	111	3
12:25:53	51	99	111	3
12:25:53	53	99	111	3
12:25:53	56	99	111	3
12:25:53	59	99	111	3
12:25:53	64	99	111	3
12:25:53	69	99	111	3
12:25:53	74	99	111	3
12:25:53	80	99	111	3
12:25:53	85	99	111	3
12:25:53	90	99	111	3
12:25:53	94	99	111	3
12:25:53	95	99	111	3
12:25:53	95	99	111	3
12:25:53	95	99	111	3
12:25:53	95	99	111	3
12:25:53	94	99	111	3
12:25:53	92	99	111	3
12:25:53	90	99	111	3
12:25:53	87	99	111	3
12:25:53	84	99	111	3
12:25:53	81	99	111	3
12:25:54	78	99	111	3
12:25:54	75	99	111	3
12:25:54	72	99	111	3
12:25:54	70	99	111	3
12:25:54	68	99	111	3
12:25:54	67	99	111	3
12:25:54	66	99	111	3
12:25:54	66	99	111	3
12:25:54	65	99	111	3
12:25:54	66	99	111	3
12:25:54	66	99	111	3
12:25:54	66	99	111	3
12:25:54	66	99	111	3
12:25:54	67	99	111	3
12:25:54	67	99	111	3
12:25:54	66	99	111	3
12:25:54	66	99	111	3
12:25:54	65	99	111	3
12:25:54	65	99	111	3
12:25:54	64	99	111	3
12:25:54	62	99	111	3
12:25:54	61	99	111	3
12:25:54	60	99	111	3
12:25:54	58	99	111	3
12:25:54	57	99	111	3
12:25:54	55	99	111	3
12:25:54	54	99	111	3
12:25:54	52	99	111	3
12:25:54	51	99	111	3
12:25:54	50	99	111	3
12:25:54	49	99	111	3
12:25:54	48	99	111	3
12:25:54	47	99	111	3
12:25:54	47	99	111	3
12:25:54	48	99	111	3
12:25:54	50	99	111	3
12:25:54	52	99	111	3
12:25:54	55	99	111	3
12:25:54	59	99	111	3
12:25:54	64	99	111	3
12:25:54	69	99	111	3
12:25:54	74	99	111	3
12:25:54	79	99	111	3
12:25:54	83	99	111	3
12:25:54	87	99	111	3
12:25:54	90	99	111	3
12:25:54	93	99	111	3
12:25:54	94	99	111	3
12:25:54	95	99	111	3
12:25:54	94	99	111	3
12:25:54	93	99	111	3
12:25:54	90	99	111	3
12:25:54	88	99	111	3
12:25:54	85	99	111	3
12:25:54	81	99	111	3
12:25:54	78	99	111	3
12:25:54	75	99	111	3
12:25:54	72	99	111	3
12:25:54	69	99	111	3
12:25:54	67	99	111	3
12:25:54	66	99	111	3
12:25:54	65	99	111	3
12:25:54	64	99	111	3
12:25:54	64	99	111	3
12:25:54	64	99	111	3
12:25:54	64	99	111	3
12:25:54	65	99	111	3
12:25:54	65	99	111	3
12:25:54	65	99	111	3
12:25:54	66	99	111	3
12:25:54	66	99	111	3
12:25:54	66	99	111	3
12:25:54	65	99	111	3
12:25:54	65	99	111	3
12:25:54	64	99	111	3
12:25:54	63	99	111	3
12:25:54	62	99	111	3
12:25:54	60	99	111	3
12:25:54	59	99	111	3
12:25:54	58	99	111	3
12:25:54	56	99	111	3
12:25:54	55	99	111	3
12:25:54	53	99	111	3
12:25:54	52	99	111	3
12:25:54	50	99	111	3
12:25:54	49	99	111	3
12:25:54	48	99	111	3
12:25:54	48	99	111	3
12:25:54	49	99	111	3
12:25:54	50	99	111	3
12:25:54	52	99	111	3
12:25:54	55	99	111	3
12:25:54	59	99	111	3
12:25:54	64	99	111	3
12:25:54	70	99	111	3
12:25:54	75	99	111	3
12:25:54	81	99	111	3
12:25:54	87	99	111	3
12:25:54	92	99	111	3
12:25:54	95	99	111	3
12:25:55	95	99	111	3
12:25:55	95	99	111	3
12:25:55	95	99	111	3
12:25:55	94	99	111	3
12:25:55	94	99	111	3
12:25:55	92	99	111	3
12:25:55	90	99	111	3
12:25:55	88	99	111	3
12:25:55	85	99	111	3
12:25:55	82	99	111	3
12:25:55	79	99	111	3
12:25:55	77	99	111	3
12:25:55	74	99	111	3
12:25:55	72	99	111	3
12:25:55	71	99	111	3
12:25:55	70	99	111	3
12:25:55	69	99	111	3
12:25:55	69	99	111	3
12:25:55	69	99	111	3
12:25:55	69	99	111	3
12:25:55	69	99	111	3
12:25:55	70	99	111	3
12:25:55	70	99	110	3
12:25:55	70	99	110	3
12:25:55	70	99	110	3
12:25:55	70	99	110	3
12:25:55	70	99	110	3
12:25:55	70	99	110	3
12:25:55	69	99	110	3
12:25:55	68	99	110	3
12:25:55	67	99	110	3
12:25:55	66	99	110	3
12:25:55	65	99	110	3
12:25:55	63	99	110	3
12:25:55	62	99	110	3
12:25:55	61	99	110	3
12:25:55	59	99	110	3
12:25:55	58	99	110	3
12:25:55	57	99	110	3
12:25:55	56	99	110	3
12:25:55	55	99	110	3
12:25:55	55	99	110	3
12:25:55	55	99	110	3
12:25:55	55	99	110	3
12:25:55	57	99	110	3
12:25:55	59	99	110	3
12:25:55	62	99	110	3
12:25:55	65	99	110	3
12:25:55	70	99	110	3
12:25:55	75	99	110	3
12:25:55	80	99	110	3
12:25:55	85	99	110	3
12:25:55	90	99	110	3
12:25:55	94	99	110	3
12:25:55	95	99	110	3
12:25:55	95	99	110	3
12:25:55	95	99	110	3
12:25:55	95	99	110	3
12:25:55	94	99	110	3
12:25:55	94	99	110	3
12:25:55	93	99	110	3
12:25:55	91	99	110	3
12:25:55	89	99	110	3
12:25:55	87	99	110	3
12:25:55	84	99	110	3
12:25:55	82	99	110	3
12:25:55	80	99	110	3
12:25:55	78	99	110	3
12:25:55	76	99	110	3
12:25:55	75	99	110	3
12:25:55	74	99	110	3
12:25:55	74	99	110	3
12:25:55	73	99	110	3
12:25:55	73	99	110	3
12:25:55	74	99	110	3
12:25:55	74	99	110	3
12:25:55	74	99	110	3
12:25:55	74	99	110	3
12:25:55	74	99	110	3
12:25:55	74	99	110	3
12:25:55	74	99	110	3
12:25:55	74	99	110	3
12:25:55	73	99	110	3
12:25:55	73	99	110	3
12:25:55	72	99	110	3
12:25:55	71	99	110	3
12:25:55	70	99	110	3
12:25:55	69	99	110	3
12:25:55	67	99	110	3
12:25:55	66	99	110	3
12:25:55	65	99	110	3
12:25:55	64	99	110	3
12:25:55	63	99	110	3
12:25:55	62	99	110	3
12:25:55	61	99	110	3
12:25:55	60	99	110	3
12:25:55	59	99	110	3
12:25:55	59	99	110	3
12:25:55	59	99	110	3
12:25:55	60	99	110	3
12:25:55	62	99	110	3
12:25:55	64	99	110	3
12:25:56	67	99	110	3
12:25:56	70	99	110	3
12:25:56	74	99	110	3
12:25:56	79	99	110	3
12:25:56	83	99	110	3
12:25:56	88	99	110	3
12:25:56	92	99	110	3
12:25:56	95	99	110	3
12:25:56	95	99	110	3
12:25:56	95	99	110	3
12:25:56	95	99	110	3
12:25:56	95	99	110	3
12:25:56	94	99	110	3
12:25:56	94	99	110	3
12:25:56	93	99	110	3
12:25:56	92	99	110	3
12:25:56	90	99	110	3
12:25:56	88	99	110	3
12:25:56	86	99	110	3
12:25:56	84	99	110	3
12:25:56	83	99	109	3
12:25:56	81	99	109	3
12:25:56	80	99	109	3
12:25:56	79	99	109	3
12:25:56	78	99	109	3
12:25:56	77	99	109	3
12:25:56	77	99	109	3
12:25:56	77	99	109	3
12:25:56	77	99	109	3
12:25:56	77	99	109	3
12:25:56	77	99	109	3
12:25:56	77	99	109	3
12:25:56	77	99	109	3
12:25:56	77	99	109	3
12:25:56	77	99	109	3
12:25:56	76	99	109	3
12:25:56	76	99	109	3
12:25:56	75	99	109	3
12:25:56	74	99	109	3
12:25:56	73	99	109	3
12:25:56	72	99	109	3
12:25:56	71	99	109	3
12:25:56	71	99	109	3
12:25:56	70	99	109	3
12:25:56	69	99	109	3
12:25:56	68	99	109	3
12:25:56	67	99	109	3
12:25:56	66	99	109	3
12:25:56	65	99	109	3
12:25:56	64	99	109	3
12:25:56	64	99	109	3
12:25:56	63	99	109	3
12:25:56	63	99	109	3
12:25:56	62	99	109	3
12:25:56	62	99	109	3
12:25:56	63	99	109	3
12:25:56	64	99	109	3
12:25:56	66	99	109	3
12:25:56	68	99	109	3
12:25:56	71	99	109	3
12:25:56	74	99	109	3
12:25:56	78	99	109	3
12:25:56	82	99	109	3
12:25:56	86	99	109	3
12:25:56	90	99	109	3
12:25:56	93	99	109	3
12:25:56	95	99	109	3
12:25:56	95	99	109	3
12:25:56	95	99	109	3
12:25:56	95	99	109	3
12:25:56	95	99	109	3
12:25:56	94	99	109	3
12:25:56	94	99	109	3
12:25:56	92	99	109	3
12:25:56	91	99	109	3
12:25:56	89	99	109	3
12:25:56	88	99	109	3
12:25:56	86	99	109	3
12:25:56	84	99	109	3
12:25:56	83	99	109	3
12:25:56	81	99	109	3
12:25:56	80	99	109	3
12:25:56	79	99	109	3
12:25:56	79	99	109	3
12:25:56	78	99	109	3
12:25:56	78	99	109	3
12:25:56	78	99	109	3
12:25:56	78	99	109	3
12:25:56	78	99	109	3
12:25:56	78	99	109	3
12:25:56	77	99	109	3
12:25:56	77	99	109	3
12:25:56	77	99	109	3
12:25:56	76	99	109	3
12:25:56	76	99	109	3
12:25:56	75	99	109	3
12:25:56	74	99	109	3
12:25:56	73	99	109	3
12:25:56	73	99	109	3
12:25:57	71	99	109	3
12:25:57	70	99	109	3
12:25:57	69	99	109	3
12:25:57	68	99	109	3
12:25:57	67	99	109	3
12:25:57	66	99	109	3
12:25:57	65	99	109	3
12:25:57	64	99	109	3
12:25:57	64	99	109	3
12:25:57	63	99	109	3
12:25:57	62	99	109	3
12:25:57	61	99	109	3
12:25:57	60	99	109	3
12:25:57	60	99	109	3
12:25:57	59	99	109	3
12:25:57	58	99	109	3
12:25:57	58	99	109	3
12:25:57	58	99	109	3
12:25:57	57	99	109	3
12:25:57	58	99	109	3
12:25:57	58	99	109	3
12:25:57	59	99	109	3
12:25:57	61	99	109	3
12:25:57	64	99	109	3
12:25:57	66	99	109	3
12:25:57	70	99	109	3
12:25:57	73	99	109	3
12:25:57	77	99	109	3
12:25:57	80	99	109	3
12:25:57	84	99	109	3
12:25:57	86	99	109	3
12:25:57	89	99	109	3
12:25:57	91	99	109	3
12:25:57	92	99	109	3
12:25:57	92	99	109	3
12:25:57	92	99	109	3
12:25:57	92	99	109	3
12:25:57	91	99	109	3
12:25:57	89	99	109	3
12:25:57	88	99	109	3
12:25:57	86	99	109	3
12:25:57	84	99	109	3
12:25:57	82	99	109	3
12:25:57	80	99	109	3
12:25:57	79	99	109	3
12:25:57	78	99	109	3
12:25:57	77	99	109	3
12:25:57	76	99	109	3
12:25:57	76	99	109	3
12:25:57	75	99	109	3
12:25:57	75	99	109	3
12:25:57	75	99	109	3
12:25:57	75	99	109	3
12:25:57	75	99	109	3
12:25:57	75	99	109	3
12:25:57	74	99	109	3
12:25:57	74	99	109	3
12:25:57	73	99	109	3
12:25:57	73	99	109	3
12:25:57	72	99	109	3
12:25:57	71	99	109	3
12:25:57	70	99	109	3
12:25:57	69	99	109	3
12:25:57	68	99	109	3
12:25:57	67	99	109	3
12:25:57	66	99	109	3
12:25:57	64	99	109	3
12:25:57	63	99	109	3
12:25:57	62	99	109	3
12:25:57	61	99	109	3
12:25:57	60	99	109	3
12:25:57	59	99	109	3
12:25:57	58	99	109	3
12:25:57	57	99	109	3
12:25:57	57	99	109	3
12:25:57	56	99	109	3
12:25:57	55	99	109	3
12:25:57	54	99	109	3
12:25:57	53	99	109	3
12:25:57	53	99	109	3
12:25:57	52	99	109	3
12:25:57	51	99	109	3
12:25:57	51	99	109	3
12:25:57	50	99	109	3
12:25:57	50	99	109	3
12:25:57	51	99	109	3
12:25:57	52	99	109	3
12:25:57	53	99	109	3
12:25:57	56	99	109	3
12:25:57	58	99	109	3
12:25:57	62	99	109	3
12:25:57	65	99	109	3
12:25:57	69	99	109	3
12:25:57	73	99	109	3
12:25:57	76	99	109	3
12:25:57	80	99	109	3
12:25:57	82	99	109	3
12:25:57	84	99	109	3
12:25:57	86	99	109	3
12:25:57	87	99	109	3
12:25:58	87	99	109	3
12:25:58	86	99	109	3
12:25:58	85	99	109	3
12:25:58	84	99	109	3
12:25:58	82	99	109	3
12:25:58	80	99	109	3
12:25:58	78	99	109	3
12:25:58	76	99	109	3
12:25:58	74	99	109	3
12:25:58	72	99	109	3
12:25:58	71	99	109	3
12:25:58	70	99	109	3
12:25:58	69	99	109	3
12:25:58	68	99	109	3
12:25:58	68	99	109	3
12:25:58	67	99	109	3
12:25:58	67	99	109	3
12:25:58	67	99	109	3
12:25:58	67	99	109	3
12:25:58	66	99	109	3
12:25:58	66	99	109	3
12:25:58	66	99	109	4
12:25:58	65	99	109	4
12:25:58	64	99	109	4
12:25:58	63	99	109	4
12:25:58	62	99	109	4
12:25:58	61	99	109	4
12:25:58	60	99	109	4
12:25:58	59	99	109	4
12:25:58	57	99	109	4
12:25:58	56	99	109	4
12:25:58	54	99	109	4
12:25:58	53	99	109	4
12:25:58	52	99	109	4
12:25:58	50	99	109	4
12:25:58	49	99	109	4
12:25:58	48	99	109	4
12:25:58	47	99	109	4
12:25:58	46	99	109	4
12:25:58	45	99	109	4
12:25:58	44	99	109	4
12:25:58	43	99	109	4
12:25:58	42	99	109	4
12:25:58	41	99	109	4
12:25:58	40	99	109	4
12:25:58	39	99	109	4
12:25:58	38	99	109	4
12:25:58	38	99	109	4
12:25:58	38	99	109	4
12:25:58	38	99	109	4
12:25:58	38	99	109	4
12:25:58	40	99	109	4
12:25:58	42	99	109	4
12:25:58	44	99	109	4
12:25:58	47	99	109	4
12:25:58	51	99	109	4
12:25:58	55	99	109	4
12:25:58	58	99	109	4
12:25:58	62	99	109	4
12:25:58	66	99	109	4
12:25:58	69	99	109	4
12:25:58	71	99	109	4
12:25:58	73	99	109	4
12:25:58	75	99	109	4
12:25:58	75	99	109	4
12:25:58	75	99	109	4
12:25:58	74	99	109	4
12:25:58	73	99	109	4
12:25:58	71	99	109	4
12:25:58	69	99	109	4
12:25:58	66	99	109	4
12:25:58	64	99	109	4
12:25:58	62	99	109	4
12:25:58	60	99	109	4
12:25:58	58	99	109	4
12:25:58	57	99	109	4
12:25:58	56	99	109	4
12:25:58	55	99	109	4
12:25:58	54	99	109	4
12:25:58	54	99	109	4
12:25:58	54	99	109	4
12:25:58	54	99	109	4
12:25:58	54	99	109	4
12:25:58	54	99	109	4
12:25:58	54	99	109	4
12:25:58	54	99	109	4
12:25:58	54	99	109	4
12:25:58	54	99	109	4
12:25:58	53	99	109	4
12:25:58	53	99	109	4
12:25:58	52	99	109	4
12:25:58	51	99	109	4
12:25:58	50	99	109	4
12:25:58	49	99	109	4
12:25:58	48	99	109	4
12:25:58	46	99	109	4
12:25:58	45	99	109	4
12:25:58	44	99	109	4
12:25:58	43	99	109	4
12:25:58	41	99	109	4
12:25:59	40	99	109	4
12:25:59	39	99	109	4
12:25:59	38	99	109	4
12:25:59	37	99	109	4
12:25:59	37	99	109	4
12:25:59	36	99	109	4
12:25:59	35	99	109	4
12:25:59	34	99	109	4
12:25:59	34	99	109	4
12:25:59	34	99	109	4
12:25:59	34	99	109	4
12:25:59	34	99	109	4
12:25:59	35	99	109	4
12:25:59	36	99	109	4
12:25:59	39	99	109	4
12:25:59	42	99	109	4
12:25:59	45	99	109	4
12:25:59	49	99	109	4
12:25:59	53	99	109	4
12:25:59	57	99	109	4
12:25:59	61	99	109	4
12:25:59	65	99	109	4
12:25:59	69	99	109	4
12:25:59	71	99	109	4
12:25:59	74	99	109	4
12:25:59	75	99	109	4
12:25:59	76	99	109	4
12:25:59	75	99	109	4
12:25:59	75	99	109	4
12:25:59	73	99	109	4
12:25:59	71	99	109	4
12:25:59	69	99	109	4
12:25:59	67	99	109	4
12:25:59	64	99	109	4
12:25:59	62	99	109	4
12:25:59	60	99	109	4
12:25:59	58	99	109	4
12:25:59	57	99	109	4
12:25:59	56	99	109	4
12:25:59	55	99	109	4
12:25:59	54	99	109	4
12:25:59	54	99	109	4
12:25:59	54	99	109	4
12:25:59	54	99	109	4
12:25:59	54	99	109	4
12:25:59	55	99	109	4
12:25:59	55	99	109	4
12:25:59	54	99	109	4
12:25:59	54	99	109	4
12:25:59	54	99	109	4
12:25:59	53	99	109	4
12:25:59	52	99	109	4
12:25:59	51	99	109	4
12:25:59	50	99	109	4
12:25:59	49	99	109	4
12:25:59	48	99	109	4
12:25:59	46	99	109	4
12:25:59	45	99	109	4
12:25:59	44	99	109	4
12:25:59	42	99	109	4
12:25:59	41	99	109	4
12:25:59	40	99	109	4
12:25:59	39	99	109	4
12:25:59	38	99	109	4
12:25:59	37	99	109	4
12:25:59	36	99	109	4
12:25:59	35	99	109	4
12:25:59	34	99	109	4
12:25:59	34	99	109	4
12:25:59	33	99	109	4
12:25:59	33	99	109	4
12:25:59	34	99	109	4
12:25:59	35	99	109	4
12:25:59	37	99	109	4
12:25:59	40	99	109	4
12:25:59	43	99	109	4
12:25:59	47	99	109	4
12:25:59	52	99	109	4
12:25:59	56	99	109	4
12:25:59	61	99	109	4
12:25:59	65	99	109	4
12:25:59	69	99	109	4
12:25:59	73	99	109	4
12:25:59	76	99	109	4
12:25:59	78	99	109	4
12:25:59	79	99	109	4
12:25:59	79	99	109	4
12:25:59	79	99	109	4
12:25:59	78	99	109	4
12:25:59	76	99	109	4
12:25:59	74	99	109	4
12:25:59	71	99	109	4
12:25:59	69	99	109	4
12:25:59	66	99	109	4
12:25:59	64	99	109	4
12:25:59	62	99	109	4
12:25:59	60	99	109	4
12:25:59	58	99	109	4
12:25:59	57	99	109	4
12:25:59	56	99	109	4
12:26:00	56	99	109	4
12:26:00	56	99	109	4
12:26:00	56	99	109	4
12:26:00	56	99	109	4
12:26:00	56	99	109	4
12:26:00	56	99	109	4
12:26:00	56	99	109	4
12:26:00	56	99	109	4
12:26:00	55	99	109	4
12:26:00	55	99	109	4
12:26:00	54	99	109	4
12:26:00	53	99	109	4
12:26:00	52	99	109	4
12:26:00	51	99	109	4
12:26:00	50	99	109	4
12:26:00	48	99	109	4
12:26:00	47	99	109	4
12:26:00	45	99	109	4
12:26:00	44	99	109	4
12:26:00	43	99	109	4
12:26:00	41	99	109	4
12:26:00	40	99	97	3
12:26:00	39	99	97	3
12:26:00	37	99	97	3
12:26:00	36	99	97	3
12:26:00	35	99	97	3
12:26:00	34	99	97	3
12:26:00	33	99	97	3
12:26:00	33	99	97	3
12:26:00	33	99	97	3
12:26:00	34	99	97	3
12:26:00	35	99	97	3
12:26:00	37	99	97	3
12:26:00	40	99	97	3
12:26:00	43	99	97	3
12:26:00	48	99	97	3
12:26:00	53	99	97	3
12:26:00	58	99	97	3
12:26:00	63	99	97	3
12:26:00	68	99	97	3
12:26:00	73	99	97	3
12:26:00	77	99	97	3
12:26:00	81	99	97	3
12:26:00	83	99	97	3
12:26:00	85	99	97	3
12:26:00	86	99	97	3
12:26:00	85	99	97	3
12:26:00	84	99	97	3
12:26:00	83	99	97	3
12:26:00	81	99	97	3
12:26:00	78	99	97	3
12:26:00	75	99	97	3
12:26:00	73	99	97	3
12:26:00	70	99	97	3
12:26:00	68	99	97	3
12:26:00	65	99	97	3
12:26:00	64	99	97	3
12:26:00	62	99	97	3
12:26:00	61	99	97	3
12:26:00	61	99	97	3
12:26:00	60	99	97	3
12:26:00	60	99	97	3
12:26:00	60	99	97	3
12:26:00	60	99	97	3
12:26:00	60	99	97	3
12:26:00	60	99	97	3
12:26:00	60	99	97	3
12:26:00	60	99	97	3
12:26:00	59	99	97	3
12:26:00	58	99	97	3
12:26:00	57	99	97	3
12:26:00	56	99	97	3
12:26:00	54	99	97	3
12:26:00	53	99	97	3
12:26:00	51	99	97	3
12:26:00	50	99	97	3
12:26:00	48	99	97	3
12:26:00	46	99	97	3
12:26:00	45	99	97	3
12:26:00	43	99	97	3
12:26:00	42	99	97	3
12:26:00	40	99	97	3
12:26:00	39	99	97	3
12:26:00	38	99	97	3
12:26:00	36	99	97	3
12:26:00	35	99	97	3
12:26:00	34	99	97	3
12:26:00	33	99	97	3
12:26:00	33	99	97	3
12:26:00	32	99	97	3
12:26:00	33	99	97	3
12:26:00	34	99	97	3
12:26:00	35	99	97	3
12:26:00	38	99	97	3
12:26:00	42	99	97	3
12:26:00	46	99	97	3
12:26:00	51	99	97	3
12:26:00	57	99	97	3
12:26:00	63	99	97	3
12:26:00	69	99	97	3
12:26:01	74	99	97	3
12:26:01	79	99	97	3
12:26:01	83	99	97	3
12:26:01	87	99	97	3
12:26:01	89	99	97	3
12:26:01	91	99	97	3
12:26:01	91	99	97	3
12:26:01	91	99	97	3
12:26:01	89	99	97	3
12:26:01	87	99	97	3
12:26:01	85	99	97	3
12:26:01	82	99	97	3
12:26:01	79	99	97	3
12:26:01	76	99	97	3
12:26:01	73	99	97	3
12:26:01	70	99	97	3
12:26:01	68	99	97	3
12:26:01	66	99	97	3
12:26:01	65	99	97	3
12:26:01	64	99	97	3
12:26:01	64	99	97	3
12:26:01	63	98	99	3
12:26:01	63	98	99	3
12:26:01	63	98	99	3
12:26:01	63	98	99	3
12:26:01	63	98	99	3
12:26:01	63	98	99	3
12:26:01	62	98	99	3
12:26:01	62	98	99	3
12:26:01	61	98	99	3
12:26:01	60	98	99	3
12:26:01	59	98	99	3
12:26:01	57	98	99	3
12:26:01	56	98	99	3
12:26:01	54	98	99	3
12:26:01	52	98	99	3
12:26:01	50	98	99	3
12:26:01	48	98	99	3
12:26:01	46	98	99	3
12:26:01	45	98	99	3
12:26:01	43	98	99	3
12:26:01	41	98	99	3
12:26:01	40	98	99	3
12:26:01	39	98	99	3
12:26:01	37	98	99	3
12:26:01	36	98	99	3
12:26:01	35	98	99	3
12:26:01	34	98	99	3
12:26:01	33	98	99	3
12:26:01	32	98	99	3
12:26:01	31	98	99	3
12:26:01	30	98	99	3
12:26:01	29	98	99	3
12:26:01	28	98	99	3
12:26:01	28	98	99	3
12:26:01	29	98	99	3
12:26:01	30	98	99	3
12:26:01	33	98	99	3
12:26:01	36	98	99	3
12:26:01	41	98	99	3
12:26:01	46	98	99	3
12:26:01	52	98	99	3
12:26:01	59	98	99	3
12:26:01	66	98	99	3
12:26:01	72	98	99	3
12:26:01	78	98	99	3
12:26:01	83	98	99	3
12:26:01	88	98	99	3
12:26:01	91	98	99	3
12:26:01	93	98	99	3
12:26:01	94	98	99	3
12:26:01	94	98	99	3
12:26:01	93	98	99	3
12:26:01	91	98	99	3
12:26:01	89	98	99	3
12:26:01	86	98	99	3
12:26:01	83	98	99	3
12:26:01	80	98	99	3
12:26:01	76	98	99	3
12:26:01	74	98	99	3
12:26:01	71	98	99	3
12:26:01	69	98	99	3
12:26:01	68	98	99	3
12:26:01	66	98	99	3
12:26:01	66	98	99	3
12:26:01	65	98	99	3
12:26:01	65	98	99	3
12:26:01	65	98	99	3
12:26:01	65	98	99	3
12:26:01	65	98	99	3
12:26:01	65	98	99	3
12:26:01	64	98	99	3
12:26:01	64	98	99	3
12:26:01	63	98	99	3
12:26:01	62	98	99	3
12:26:01	60	98	99	3
12:26:01	59	98	99	3
12:26:01	57	98	99	3
12:26:01	55	98	99	3
12:26:01	53	98	99	3
12:26:02	51	98	99	3
12:26:02	49	98	99	3
12:26:02	47	98	99	3
12:26:02	45	98	99	3
12:26:02	43	98	99	3
12:26:02	41	98	99	3
12:26:02	39	98	99	3
12:26:02	37	98	99	3
12:26:02	36	98	99	3
12:26:02	35	98	99	3
12:26:02	33	98	99	3
12:26:02	32	98	99	3
12:26:02	31	98	99	3
12:26:02	30	98	99	3
12:26:02	29	98	99	3
12:26:02	28	98	99	3
12:26:02	27	98	99	3
12:26:02	26	98	99	3
12:26:02	25	98	99	3
12:26:02	24	98	99	3
12:26:02	23	98	99	3
12:26:02	22	98	99	4
12:26:02	23	98	99	4
12:26:02	24	98	99	4
12:26:02	26	98	99	4
12:26:02	29	98	99	4
12:26:02	33	98	99	4
12:26:02	39	98	99	4
12:26:02	45	98	99	4
12:26:02	52	98	99	4
12:26:02	60	98	99	4
12:26:02	67	98	99	4
12:26:02	74	98	99	4
12:26:02	80	98	99	4
12:26:02	86	98	99	4
12:26:02	90	98	99	4
12:26:02	93	98	99	4
12:26:02	95	98	99	4
12:26:02	95	98	99	4
12:26:02	94	98	99	4
12:26:02	92	98	99	4
12:26:02	90	98	99	4
12:26:02	87	98	99	4
12:26:02	84	98	99	4
12:26:02	80	98	99	4
12:26:02	77	98	99	4
12:26:02	74	98	99	4
12:26:02	71	98	99	4
12:26:02	69	98	99	4
12:26:02	67	98	99	4
12:26:02	66	98	99	4
12:26:02	65	98	99	4
12:26:02	64	98	99	4
12:26:02	64	98	99	4
12:26:02	64	98	99	4
12:26:02	64	98	99	4
12:26:02	64	98	99	4
12:26:02	64	98	99	4
12:26:02	64	98	99	4
12:26:02	64	98	99	4
12:26:02	63	98	99	4
12:26:02	62	98	99	4
12:26:02	61	98	99	4
12:26:02	60	98	99	4
12:26:02	58	98	99	4
12:26:02	56	98	99	4
12:26:02	54	98	99	4
12:26:02	52	98	99	4
12:26:02	50	98	99	4
12:26:02	48	98	99	4
12:26:02	46	98	99	4
12:26:02	44	98	99	4
12:26:02	42	98	99	4
12:26:02	40	98	99	4
12:26:02	38	98	99	4
12:26:02	37	98	99	4
12:26:02	35	98	99	4
12:26:02	34	98	99	4
12:26:02	32	98	99	4
12:26:02	31	98	99	4
12:26:02	30	98	99	4
12:26:02	29	98	99	4
12:26:02	28	98	99	4
12:26:02	27	98	99	4
12:26:02	25	98	99	4
12:26:02	24	98	99	4
12:26:02	23	98	99	4
12:26:02	22	98	99	4
12:26:02	21	98	99	4
12:26:02	20	98	99	4
12:26:02	19	98	99	4
12:26:02	19	98	99	4
12:26:02	20	98	99	4
12:26:02	21	98	99	4
12:26:02	24	98	99	4
12:26:02	28	98	99	4
12:26:02	33	98	99	4
12:26:02	39	98	99	4
12:26:02	46	98	99	4
12:26:02	53	98	99	4
12:26:03	60	98	99	4
12:26:03	67	98	99	4
12:26:03	74	98	99	4
12:26:03	80	98	99	4
12:26:03	84	98	99	4
12:26:03	87	98	99	4
12:26:03	89	98	99	4
12:26:03	90	98	99	4
12:26:03	89	98	99	4
12:26:03	88	98	99	4
12:26:03	85	98	99	4
12:26:03	82	98	99	4
12:26:03	78	98	99	4
12:26:03	74	98	99	4
12:26:03	70	98	99	4
12:26:03	66	98	99	4
12:26:03	62	98	99	4
12:26:03	59	98	99	4
12:26:03	57	98	99	4
12:26:03	55	98	99	4
12:26:03	54	98	99	4
12:26:03	53	99	92	4
12:26:03	53	99	92	4
12:26:03	53	99	92	4
12:26:03	53	99	92	4
12:26:03	53	99	92	4
12:26:03	53	99	92	4
12:26:03	53	99	92	4
12:26:03	53	99	92	4
12:26:03	52	99	92	4
12:26:03	51	99	92	4
12:26:03	50	99	92	4
12:26:03	48	99	92	4
12:26:03	46	99	92	4
12:26:03	44	99	92	4
12:26:03	42	99	92	4
12:26:03	39	99	92	4
12:26:03	37	99	92	4
12:26:03	34	99	92	4
12:26:03	32	99	92	4
12:26:03	29	99	92	4
12:26:03	27	99	92	4
12:26:03	25	99	92	4
12:26:03	23	99	92	4
12:26:03	21	99	92	4
12:26:03	19	99	92	4
12:26:03	17	99	92	4
12:26:03	16	99	92	4
12:26:03	14	99	92	4
12:26:03	13	99	92	4
12:26:03	12	99	92	4
12:26:03	10	99	92	4
12:26:03	9	99	92	4
12:26:03	8	99	92	4
12:26:03	6	99	92	4
12:26:03	5	99	92	4
12:26:03	5	99	92	4
12:26:03	5	99	92	4
12:26:03	5	99	92	4
12:26:03	5	99	92	4
12:26:03	6	99	92	4
12:26:03	7	99	92	4
12:26:03	10	99	92	4
12:26:03	14	99	92	4
12:26:03	19	99	92	4
12:26:03	25	99	92	4
12:26:03	31	99	92	4
12:26:03	38	99	92	4
12:26:03	45	99	92	4
12:26:03	52	99	92	4
12:26:03	58	99	92	4
12:26:03	64	99	92	4
12:26:03	68	99	92	4
12:26:03	71	99	92	4
12:26:03	73	99	92	4
12:26:03	74	99	92	4
12:26:03	74	99	92	4
12:26:03	72	99	92	4
12:26:03	70	99	92	4
12:26:03	67	99	92	4
12:26:03	63	99	92	4
12:26:03	60	99	92	4
12:26:03	56	99	92	4
12:26:03	53	99	92	4
12:26:03	50	99	92	4
12:26:03	47	99	92	4
12:26:03	45	99	92	4
12:26:03	43	99	92	4
12:26:03	42	99	92	4
12:26:03	42	99	92	4
12:26:03	42	99	92	4
12:26:03	42	99	92	4
12:26:03	42	99	92	4
12:26:03	42	99	92	4
12:26:03	42	99	92	4
12:26:03	42	99	92	4
12:26:03	42	99	92	4
12:26:03	41	99	92	4
12:26:03	40	99	92	4
12:26:03	38	99	92	4
12:26:04	36	99	92	4
12:26:04	34	99	92	4
12:26:04	32	99	92	4
12:26:04	29	99	92	4
12:26:04	27	99	92	4
12:26:04	24	99	92	4
12:26:04	22	99	92	4
12:26:04	19	99	92	4
12:26:04	17	99	92	4
12:26:04	14	99	92	4
12:26:04	12	99	92	4
12:26:04	10	99	92	4
12:26:04	8	99	92	4
12:26:04	7	99	92	4
12:26:04	5	99	92	4
12:26:04	5	99	92	4
12:26:04	5	99	92	4
12:26:04	5	99	92	4
12:26:04	5	99	92	4
12:26:04	5	99	92	4
12:26:04	5	99	92	4
12:26:04	5	99	92	4
12:26:04	5	99	92	4
12:26:04	5	99	92	4
12:26:04	5	99	92	4
12:26:04	5	99	92	4
12:26:04	6	99	92	4
12:26:04	8	99	92	4
12:26:04	11	99	92	4
12:26:04	15	99	92	4
12:26:04	20	99	92	4
12:26:04	25	99	92	4
12:26:04	30	99	92	4
12:26:04	35	99	92	4
12:26:04	40	99	92	4
12:26:04	44	99	92	4
12:26:04	48	99	92	4
12:26:04	50	99	92	4
12:26:04	52	99	92	4
12:26:04	53	99	92	4
12:26:04	53	99	92	4
12:26:04	52	99	92	4
12:26:04	50	99	92	4
12:26:04	47	99	92	4
12:26:04	44	99	92	4
12:26:04	41	99	92	4
12:26:04	38	99	92	4
12:26:04	35	99	92	4
12:26:04	32	99	92	4
12:26:04	30	99	92	4
12:26:04	28	99	92	4
12:26:04	26	99	92	4
12:26:04	25	99	92	4
12:26:04	24	99	92	4
12:26:04	23	99	92	4
12:26:04	22	99	92	4
12:26:04	21	99	92	4
12:26:04	20	99	92	4
12:26:04	19	99	92	4
12:26:04	18	99	92	4
12:26:04	16	99	92	4
12:26:04	14	99	92	4
12:26:04	12	99	92	4
12:26:04	10	99	92	4
12:26:04	7	99	92	4
12:26:04	5	99	92	4
12:26:04	5	99	92	4
12:26:04	5	99	92	4
12:26:04	5	99	92	4
12:26:04	5	99	92	4
12:26:04	5	99	92	4
12:26:04	5	99	92	4
12:26:04	5	99	92	4
12:26:04	5	99	92	4
12:26:04	5	99	92	4
12:26:04	5	99	92	4
12:26:04	5	99	92	4
12:26:04	5	99	92	4
12:26:04	5	99	92	4
12:26:04	5	99	92	4
12:26:04	5	99	92	4
12:26:04	5	99	92	4
12:26:04	5	99	92	4
12:26:04	5	99	92	4
12:26:04	5	99	92	4
12:26:04	5	99	92	4
12:26:04	5	99	92	4
12:26:04	6	99	92	4
12:26:04	7	99	92	4
12:26:04	9	99	92	4
12:26:04	12	99	92	4
12:26:04	15	99	92	4
12:26:04	19	99	92	4
12:26:04	23	99	92	4
12:26:04	26	99	92	4
12:26:04	30	99	92	4
12:26:04	34	99	92	4
12:26:04	37	99	92	4
12:26:04	39	99	92	4
12:26:04	41	99	92	4
12:26:05	42	99	92	4
12:26:05	42	99	92	4
12:26:05	42	99	92	4
12:26:05	41	99	92	4
12:26:05	40	99	92	4
12:26:05	38	99	92	4
12:26:05	36	99	92	4
12:26:05	34	99	92	4
12:26:05	32	99	92	4
12:26:05	30	99	92	4
12:26:05	29	99	92	4
12:26:05	27	99	92	4
12:26:05	26	99	92	4
12:26:05	25	99	92	4
12:26:05	25	99	92	4
12:26:05	24	99	92	4
12:26:05	24	99	92	4
12:26:05	24	99	92	4
12:26:05	24	99	92	4
12:26:05	24	99	92	4
12:26:05	24	99	92	4
12:26:05	24	98	91	4
12:26:05	23	98	91	4
12:26:05	23	98	91	4
12:26:05	22	98	91	4
12:26:05	22	98	91	4
12:26:05	21	98	91	4
12:26:05	20	98	91	4
12:26:05	19	98	91	4
12:26:05	18	98	91	4
12:26:05	17	98	91	4
12:26:05	16	98	91	4
12:26:05	15	98	91	4
12:26:05	14	98	91	4
12:26:05	13	98	91	4
12:26:05	13	98	91	4
12:26:05	12	98	91	4
12:26:05	11	98	91	4
12:26:05	10	98	91	4
12:26:05	10	98	91	4
12:26:05	9	98	91	4
12:26:05	9	98	91	4
12:26:05	9	98	91	4
12:26:05	9	98	91	4
12:26:05	10	98	91	4
12:26:05	11	98	91	4
12:26:05	13	98	91	4
12:26:05	15	98	91	4
12:26:05	18	98	91	4
12:26:05	22	98	91	4
12:26:05	25	98	91	4
12:26:05	29	98	91	4
12:26:05	33	98	91	4
12:26:05	37	98	91	4
12:26:05	40	98	91	4
12:26:05	42	98	91	4
12:26:05	44	98	91	4
12:26:05	45	98	91	4
12:26:05	46	98	91	4
12:26:05	46	98	91	4
12:26:05	45	98	91	4
12:26:05	44	98	91	4
12:26:05	43	98	91	4
12:26:05	41	98	91	4
12:26:05	39	98	91	4
12:26:05	37	98	91	4
12:26:05	35	98	91	4
12:26:05	33	98	91	4
12:26:05	31	98	91	4
12:26:05	30	98	91	4
12:26:05	29	98	91	4
12:26:05	28	98	91	4
12:26:05	27	98	91	4
12:26:05	27	98	91	4
12:26:05	27	98	91	4
12:26:05	27	98	91	4
12:26:05	27	98	91	4
12:26:05	27	98	91	4
12:26:05	27	98	91	4
12:26:05	26	98	91	4
12:26:05	26	98	91	4
12:26:05	25	98	91	4
12:26:05	25	98	91	4
12:26:05	24	98	91	4
12:26:05	23	98	91	4
12:26:05	22	98	91	4
12:26:05	21	98	91	4
12:26:05	20	98	91	4
12:26:05	19	98	91	4
12:26:05	18	98	91	4
12:26:05	16	98	91	4
12:26:05	15	98	91	4
12:26:05	14	98	91	4
12:26:05	13	98	91	4
12:26:05	12	98	91	4
12:26:05	11	98	91	4
12:26:05	11	98	91	4
12:26:05	10	98	91	4
12:26:05	9	98	91	4
12:26:05	8	98	91	4
12:26:06	8	98	91	4
12:26:06	8	98	91	4
12:26:06	8	98	91	4
12:26:06	9	98	91	4
12:26:06	11	98	91	4
12:26:06	14	98	91	4
12:26:06	17	98	91	4
12:26:06	21	98	91	4
12:26:06	25	98	91	4
12:26:06	30	98	91	4
12:26:06	36	98	91	4
12:26:06	41	98	91	4
12:26:06	46	98	91	4
12:26:06	50	98	91	4
12:26:06	54	98	91	4
12:26:06	57	98	91	4
12:26:06	59	98	91	4
12:26:06	61	98	91	4
12:26:06	62	98	91	4
12:26:06	62	98	91	4
12:26:06	61	98	91	4
12:26:06	60	98	91	4
12:26:06	58	98	91	4
12:26:06	56	98	91	4
12:26:06	54	98	91	4
12:26:06	52	98	91	4
12:26:06	50	98	91	4
12:26:06	48	98	91	4
12:26:06	46	98	91	4
12:26:06	45	98	91	4
12:26:06	44	98	91	4
12:26:06	43	98	91	4
12:26:06	42	98	91	4
12:26:06	42	98	91	4
12:26:06	42	98	91	4
12:26:06	42	98	91	4
12:26:06	42	98	91	4
12:26:06	42	98	91	4
12:26:06	42	98	91	4
12:26:06	41	98	91	4
12:26:06	41	98	91	4
12:26:06	40	98	91	4
12:26:06	40	98	91	4
12:26:06	39	98	91	4
12:26:06	38	98	91	4
12:26:06	37	98	91	4
12:26:06	36	98	91	4
12:26:06	35	98	91	4
12:26:06	33	98	91	4
12:26:06	32	98	91	4
12:26:06	31	98	91	4
12:26:06	30	98	91	4
12:26:06	28	98	91	4
12:26:06	27	98	91	4
12:26:06	26	98	91	4
12:26:06	25	98	91	4
12:26:06	24	98	91	4
12:26:06	23	98	91	4
12:26:06	22	98	91	4
12:26:06	22	98	91	4
12:26:06	21	98	91	4
12:26:06	21	98	91	4
12:26:06	22	98	91	4
12:26:06	24	98	91	4
12:26:06	26	98	91	4
12:26:06	29	98	91	4
12:26:06	33	98	91	4
12:26:06	38	98	91	4
12:26:06	43	98	91	4
12:26:06	48	98	91	4
12:26:06	54	98	91	4
12:26:06	59	98	91	4
12:26:06	65	98	91	4
12:26:06	69	98	91	4
12:26:06	73	98	91	4
12:26:06	76	98	91	4
12:26:06	78	98	91	4
12:26:06	80	98	91	4
12:26:06	81	98	91	4
12:26:06	80	98	91	4
12:26:06	80	98	91	4
12:26:06	78	98	91	4
12:26:06	76	98	91	4
12:26:06	74	98	91	4
12:26:06	72	98	91	4
12:26:06	69	98	91	4
12:26:06	67	98	91	4
12:26:06	65	98	91	4
12:26:06	63	98	91	4
12:26:06	62	98	91	4
12:26:06	60	98	91	4
12:26:06	59	98	91	4
12:26:06	58	98	91	4
12:26:06	58	98	91	4
12:26:06	57	98	91	4
12:26:06	57	98	91	4
12:26:06	57	98	91	4
12:26:06	56	98	91	4
12:26:06	56	98	91	4
12:26:06	55	98	91	4
12:26:06	55	98	91	4
12:26:06	54	98	91	4
12:26:07	53	98	91	4
12:26:07	52	98	91	4
12:26:07	50	98	91	4
12:26:07	49	98	91	4
12:26:07	47	98	91	4
12:26:07	46	98	91	4
12:26:07	44	98	91	4
12:26:07	42	98	91	4
12:26:07	41	98	91	4
12:26:07	39	98	91	4
12:26:07	38	98	91	4
12:26:07	36	98	91	4
